0.000010
-0.004224
-0.007018
-0.014140
-0.023275
-0.034425
-0.048264
-0.065394
-0.086077
-0.110226
-0.137489
-0.167312
-0.199038
-0.231899
-0.265087
-0.297762
-0.329067
-0.358175
-0.384282
-0.406686
-0.424797
-0.438211
-0.446687
-0.450263
-0.449135
-0.443752
-0.434722
-0.422831
-0.408936
-0.393979
-0.378871
-0.364488
-0.351592
-0.340785
-0.332532
-0.327109
-0.324576
-0.324851
-0.327669
-0.332659
-0.339289
-0.347044
-0.355287
-0.363461
-0.370998
-0.377441
-0.382367
-0.385554
-0.386820
-0.386167
-0.383674
-0.379571
-0.374180
-0.367849
-0.361028
-0.354142
-0.347590
-0.341791
-0.337024
-0.333547
-0.331466
-0.330823
-0.331508
-0.333369
-0.336127
-0.339494
-0.343108
-0.346643
-0.349750
-0.352177
-0.353708
-0.354219
-0.353700
-0.352181
-0.349812
-0.346786
-0.343342
-0.339759
-0.336284
-0.333169
-0.330584
-0.328628
-0.327371
-0.326742
-0.326671
-0.326975
-0.327466
-0.327915
-0.328098
-0.327828
-0.326984
-0.325487
-0.323334
-0.320619
-0.317459
-0.314102
-0.310767
-0.307763
-0.305361
-0.303800
-0.303289
-0.303954
-0.305825
-0.308903
-0.313016
-0.317985
-0.323532
-0.329317
-0.335016
-0.340311
-0.344890
-0.348555
-0.351105
-0.352485
-0.352709
-0.351863
-0.350174
-0.347843
-0.345189
-0.342518
-0.340091
-0.338222
-0.337093
-0.336867
-0.337604
-0.339314
-0.341910
-0.345253
-0.349163
-0.353449
-0.357875
-0.362290
-0.366508
-0.370414
-0.373955
-0.377083
-0.379863
-0.382346
-0.384649
-0.386880
-0.389144
-0.391552
-0.394104
-0.396869
-0.399776
-0.402766
-0.405715
-0.408486
-0.410922
-0.412878
-0.414212
-0.414814
-0.414639
-0.413660
-0.411928
-0.409522
-0.406567
-0.403230
-0.399661
-0.396053
-0.392524
-0.389179
-0.386072
-0.383227
-0.380562
-0.378049
-0.375502
-0.372826
-0.369861
-0.366479
-0.362609
-0.358190
-0.353265
-0.347903
-0.342227
-0.336439
-0.330721
-0.325330
-0.320460
-0.316323
-0.313042
-0.310699
-0.309302
-0.308794
-0.309039
-0.309838
-0.310968
-0.312166
-0.313156
-0.313703
-0.313621
-0.312776
-0.311095
-0.308618
-0.305380
-0.301596
-0.297444
-0.293193
-0.289118
-0.285471
-0.282513
-0.280400
-0.279280
-0.279188
-0.280120
-0.281965
-0.284564
-0.287700
-0.291127
-0.294565
-0.297775
-0.300515
-0.302596
-0.303865
-0.304214
-0.303606
-0.302039
-0.299538
-0.296168
-0.292015
-0.287103
-0.281513
-0.275240
-0.268275
-0.260592
-0.252096
-0.242716
-0.232384
-0.220979
-0.208497
-0.194896
-0.180234
-0.164602
-0.148131
-0.131029
-0.113536
-0.095901
-0.078398
-0.061300
-0.044836
-0.029174
-0.014433
-0.000671
0.012143
0.024099
0.035329
0.046033
0.056404
0.066673
0.076961
0.087452
0.098179
0.109121
0.120215
0.131250
0.142037
0.152282
0.161658
0.169868
0.176609
0.181656
0.184834
0.186071
0.185366
0.182856
0.178698
0.173173
0.166584
0.159273
0.151570
0.143770
0.136141
0.128851
0.122006
0.115653
0.109696
0.104059
0.098527
0.092905
0.086986
0.080563
0.073468
0.065595
0.056882
0.047344
0.037043
0.026120
0.014724
0.003063
-0.008678
-0.020309
-0.031698
-0.042705
-0.053300
-0.063447
-0.073188
-0.082622
-0.091822
-0.100943
-0.110077
-0.119317
-0.128755
-0.138355
-0.148138
-0.157983
-0.167782
-0.177385
-0.186553
-0.195147
-0.202953
-0.209832
-0.215687
-0.220446
-0.224159
-0.226838
-0.228640
-0.229719
-0.230276
-0.230526
-0.230658
-0.230882
-0.231324
-0.232111
-0.233272
-0.234806
-0.236696
-0.238816
-0.241089
-0.243374
-0.245588
-0.247631
-0.249477
-0.251108
-0.252557
-0.253931
-0.255318
-0.256863
-0.258660
-0.260797
-0.263278
-0.266050
-0.268899
-0.271564
-0.273634
-0.274548
-0.273635
-0.270111
-0.263143
-0.251814
-0.235182
-0.212383
-0.182529
-0.144907
-0.098811
-0.043743
0.020650
0.094626
0.178209
0.271328
0.373736
0.485038
0.604786
0.732334
0.866976
1.007915
1.154127
1.304636
1.458158
1.613370
1.768702
1.922458
2.072789
2.217614
2.354778
2.482042
2.597070
2.697566
2.781294
2.846211
2.890499
2.912665
2.911644
2.886798
2.838044
2.765773
2.670999
2.555217
2.420411
2.269084
2.104018
1.928336
1.745281
1.558225
1.370463
1.185152
1.005225
0.833269
0.671568
0.521874
0.385568
0.263546
0.156252
0.063741
-0.014327
-0.078609
-0.129999
-0.169634
-0.198726
-0.218613
-0.230636
-0.236137
-0.236361
-0.232512
-0.225616
-0.216628
-0.206314
-0.195330
-0.184189
-0.173244
-0.162756
-0.152833
-0.143549
-0.134811
-0.126539
-0.118574
-0.110718
-0.102810
-0.094658
-0.086118
-0.077099
-0.067513
-0.057382
-0.046741
-0.035682
-0.024387
-0.013011
-0.001776
0.009119
0.019474
0.029132
0.037966
0.045906
0.052910
0.059040
0.064351
0.068998
0.073148
0.076969
0.080628
0.084290
0.088054
0.092026
0.096202
0.100574
0.105062
0.109522
0.113859
0.117886
0.121481
0.124571
0.127062
0.128969
0.130355
0.131329
0.132088
0.132851
0.133863
0.135360
0.137572
0.140691
0.144828
0.150076
0.156389
0.163674
0.171753
0.180384
0.189316
0.198251
0.206928
0.215121
0.222623
0.229325
0.235199
0.240285
0.244715
0.248687
0.252453
0.256254
0.260371
0.265039
0.270464
0.276751
0.284003
0.292139
0.301070
0.310608
0.320485
0.330455
0.340223
0.349518
0.358086
0.365756
0.372401
0.377981
0.382563
0.386237
0.389216
0.391689
0.393942
0.396173
0.398652
0.401538
0.404968
0.409013
0.413654
0.418839
0.424445
0.430304
0.436268
0.442141
0.447782
0.453070
0.457926
0.462361
0.466399
0.470173
0.473831
0.477546
0.481542
0.486000
0.491097
0.496957
0.503651
0.511215
0.519562
0.528616
0.538210
0.548141
0.558221
0.568187
0.577898
0.587170
0.595932
0.604152
0.611854
0.619142
0.626162
0.633084
0.640108
0.647460
0.655295
0.663798
0.673012
0.682986
0.693686
0.704975
0.716752
0.728780
0.740892
0.752861
0.764515
0.775719
0.786364
0.796439
0.805975
0.815080
0.823877
0.832564
0.841313
0.850320
0.859737
0.869692
0.880247
0.891422
0.903168
0.915398
0.927962
0.940707
0.953448
0.966029
0.978316
0.990210
1.001683
1.012737
1.023425
1.033890
1.044231
1.054637
1.065264
1.076235
1.087681
1.099622
1.112080
1.124956
1.138133
1.151413
1.164556
1.177331
1.189454
1.200725
1.210916
1.219887
1.227586
1.233983
1.239158
1.243241
1.246387
1.248833
1.250807
1.252492
1.254092
1.255721
1.257437
1.259251
1.261059
1.262731
1.264055
1.264773
1.264638
1.263367
1.260750
1.256575
1.250715
1.243137
1.233805
1.222826
1.210331
1.196483
1.181537
1.165669
1.149101
1.132022
1.114539
1.096732
1.078627
1.060151
1.041223
1.021708
1.001433
0.980269
0.958057
0.934722
0.910188
0.884484
0.857695
0.829950
0.801489
0.772523
0.743344
0.714210
0.685390
0.657150
0.629604
0.602934
0.577165
0.552301
0.528291
0.505017
0.482362
0.460210
0.438403
0.416877
0.395549
0.374434
0.353580
0.333033
0.312947
0.293445
0.274646
0.256701
0.239696
0.223675
0.208631
0.194492
0.181147
0.168430
0.156142
0.144087
0.132035
0.119809
0.107268
0.094306
0.080956
0.067239
0.053303
0.039340
0.025567
0.012276
-0.000275
-0.011815
-0.022123
-0.031032
-0.038430
-0.044290
-0.048672
-0.051691
-0.053540
-0.054455
-0.054658
-0.054455
-0.054061
-0.053706
-0.053557
-0.053694
-0.054221
-0.055045
-0.056148
-0.057381
-0.058625
-0.059744
-0.060578
-0.061074
-0.061121
-0.060723
-0.059932
-0.058797
-0.057492
-0.056119
-0.054879
-0.053930
-0.053411
-0.053447
-0.054092
-0.055332
-0.057147
-0.059421
-0.062010
-0.064756
-0.067468
-0.069951
-0.072026
-0.073583
-0.074520
-0.074820
-0.074496
-0.073634
-0.072338
-0.070742
-0.069047
-0.067370
-0.065877
-0.064647
-0.063750
-0.063191
-0.062903
-0.062825
-0.062798
-0.062676
-0.062312
-0.061517
-0.060197
-0.058273
-0.055740
-0.052650
-0.049100
-0.045282
-0.041380
-0.037628
-0.034268
-0.031487
-0.029465
-0.028305
-0.028043
-0.028648
-0.029995
-0.031913
-0.034155
-0.036464
-0.038564
-0.040191
-0.041149
-0.041272
-0.040479
-0.038787
-0.036243
-0.033038
-0.029359
-0.025460
-0.021656
-0.018182
-0.015290
-0.013170
-0.011924
-0.011610
-0.012167
-0.013518
-0.015469
-0.017817
-0.020308
-0.022688
-0.024728
-0.026234
-0.027067
-0.027154
-0.026491
-0.025151
-0.023237
-0.020946
-0.018443
-0.015966
-0.013703
-0.011805
-0.010430
-0.009604
-0.009386
-0.009706
-0.010485
-0.011582
-0.012845
-0.014141
-0.015288
-0.016180
-0.016739
-0.016897
-0.016671
-0.016103
-0.015286
-0.014328
-0.013351
-0.012496
-0.011835
-0.011455
-0.011383
-0.011588
-0.012035
-0.012616
-0.013200
-0.013651
-0.013810
-0.013554
-0.012780
-0.011448
-0.009553
-0.007153
-0.004363
-0.001339
0.001740
0.004634
0.007121
0.009045
0.010197
0.010533
0.009946
0.008538
0.006355
0.003583
0.000439
-0.002867
-0.006042
-0.008876
-0.011123
-0.012676
-0.013404
-0.013333
-0.012476
-0.011005
-0.009094
-0.006920
-0.004778
-0.002817
-0.001267
-0.000257
0.000143
-0.000086
-0.000874
-0.002105
-0.003584
-0.005098
-0.006434
-0.007383
-0.007766
-0.007483
-0.006473
-0.004765
-0.002447
0.000343
0.003370
0.006431
0.009267
0.011648
0.013396
0.014357
0.014498
0.013799
0.012353
0.010332
0.007925
0.005406
0.003039
0.001062
-0.000270
-0.000797
-0.000401
0.000965
0.003249
0.006360
0.010103
0.014301
0.018687
0.023024
0.027106
0.030763
0.033879
0.036393
0.038324
0.039775
0.040851
0.041763
0.042680
0.043838
0.045375
0.047446
0.050112
0.053401
0.057261
0.061532
0.066095
0.070678
0.075075
0.079050
0.082371
0.084901
0.086519
0.087175
0.086948
0.085904
0.084268
0.082233
0.080063
0.078057
0.076414
0.075403
0.075146
0.075776
0.077299
0.079672
0.082782
0.086438
0.090438
0.094554
0.098546
0.102228
0.105393
0.107972
0.109880
0.111141
0.111832
0.112050
0.111967
0.111744
0.111527
0.111447
0.111613
0.112062
0.112788
0.113721
0.114766
0.115760
0.116546
0.116996
0.116927
0.116277
0.114985
0.113057
0.110573
0.107668
0.104521
0.101366
0.098437
0.095967
0.094174
0.093220
0.093248
0.094301
0.096370
0.099403
0.103276
0.107824
0.112892
0.118277
0.123828
0.129386
0.134866
0.140197
0.145364
0.150442
0.155473
0.160596
0.165921
0.171535
0.177561
0.184024
0.190974
0.198375
0.206157
0.214239
0.222457
0.230710
0.238795
0.246627
0.254099
0.261155
0.267812
0.274102
0.280138
0.286050
0.292026
0.298235
0.304859
0.312048
0.319896
0.328471
0.337725
0.347598
0.357929
0.368509
0.379089
0.389387
0.399131
0.408034
0.415902
0.422536
0.427829
0.431769
0.434342
0.435681
0.435941
0.435283
0.433932
0.432104
0.429924
0.427567
0.425095
0.422532
0.419860
0.416964
0.413695
0.409893
0.405350
0.399940
0.393472
0.385893
0.377148
0.367280
0.356399
0.344677
0.332362
0.319692
0.306961
0.294448
0.282363
0.270930
0.260267
0.250427
0.241390
0.233039
0.225238
0.217787
0.210454
0.203064
0.195380
0.187301
0.178720
0.169622
0.160069
0.150197
0.140163
0.130206
0.120564
0.111449
0.103102
0.095627
0.089162
0.083704
0.079232
0.075619
0.072740
0.070358
0.068286
0.066273
0.064171
0.061806
0.059091
0.056009
0.052550
0.048862
0.045033
0.041244
0.037677
0.034462
0.031754
0.029617
0.028091
0.027136
0.026652
0.026486
0.026444
0.026326
0.025919
0.025058
0.023612
0.021605
0.019016
0.016064
0.013022
0.010272
0.008331
0.007723
0.009173
0.013322
0.020906
0.032637
0.049209
0.071307
0.099464
0.134261
0.176147
0.225515
0.282684
0.347906
0.421356
0.503161
0.593303
0.691751
0.798347
0.912803
1.034753
1.163633
1.298745
1.439190
1.583897
1.731591
1.880736
2.029677
2.176515
2.319236
2.455637
2.583545
2.700702
2.804970
2.894238
2.966608
3.020441
3.054339
3.067303
3.058672
3.028236
2.976201
2.903172
2.810202
2.698665
2.570341
2.427267
2.271734
2.106190
1.933229
1.755482
1.575585
1.396085
1.219438
1.047893
0.883455
0.727932
0.582759
0.449148
0.327924
0.219615
0.124431
0.042240
-0.027321
-0.084911
-0.131359
-0.167676
-0.195010
-0.214536
-0.227451
-0.234979
-0.238177
-0.238085
-0.235565
-0.231320
-0.225901
-0.219717
-0.212960
-0.205782
-0.198149
-0.190005
-0.181188
-0.171594
-0.161105
-0.149613
-0.137160
-0.123770
-0.109629
-0.094942
-0.079997
-0.065156
-0.050737
-0.037125
-0.024613
-0.013474
-0.003883
0.004035
0.010304
0.015008
0.018312
0.020481
0.021791
0.022568
0.023104
0.023689
0.024555
0.025842
0.027661
0.029983
0.032762
0.035828
0.039015
0.042123
0.044917
0.047215
0.048876
0.049769
0.049904
0.049295
0.048066
0.046391
0.044486
0.042578
0.040970
0.039846
0.039455
0.039914
0.041333
0.043747
0.047072
0.051223
0.056051
0.061339
0.066897
0.072510
0.077991
0.083196
0.088039
0.092469
0.096496
0.100211
0.103721
0.107138
0.110629
0.114289
0.118236
0.122527
0.127170
0.132125
0.137300
0.142555
0.147765
0.152732
0.157321
0.161427
0.164923
0.167828
0.170129
0.171933
0.173412
0.174701
0.176060
0.177672
0.179735
0.182416
0.185837
0.190042
0.195017
0.200690
0.206917
0.213512
0.220253
0.226942
0.233341
0.239295
0.244648
0.249350
0.253365
0.256778
0.259717
0.262335
0.264855
0.267481
0.270415
0.273867
0.277958
0.282781
0.288365
0.294655
0.301562
0.308941
0.316605
0.324388
0.332096
0.339562
0.346681
0.353381
0.359652
0.365581
0.371253
0.376833
0.382529
0.388507
0.395000
0.402137
0.410084
0.418890
0.428567
0.439066
0.450271
0.462009
0.474119
0.486345
0.498518
0.510415
0.521916
0.532907
0.543344
0.553292
0.562769
0.571960
0.581009
0.590122
0.599475
0.609256
0.619590
0.630585
0.642250
0.654601
0.667523
0.680915
0.694608
0.708410
0.722157
0.735653
0.748785
0.761461
0.773623
0.785319
0.796573
0.807536
0.818339
0.829117
0.840048
0.851227
0.862756
0.874662
0.886895
0.899411
0.912030
0.924595
0.936877
0.948662
0.959751
0.969974
0.979203
0.987377
0.994501
1.000638
1.005929
1.010538
1.014671
1.018533
1.022297
1.026147
1.030167
1.034373
1.038765
1.043194
1.047511
1.051466
1.054804
1.057252
1.058541
1.058437
1.056767
1.053409
1.048323
1.041536
1.033163
1.023394
1.012397
1.000457
0.987793
0.974637
0.961188
0.947560
0.933862
0.920058
0.906122
0.891900
0.877255
0.862003
0.845965
0.828939
0.810805
0.791455
0.770847
0.749016
0.726011
0.702019
0.677181
0.651708
0.625839
0.599746
0.573664
0.547689
0.521978
0.496562
0.471437
0.446600
0.421957
0.397447
0.372980
0.348465
0.323882
0.299188
0.274426
0.249683
0.225042
0.200690
0.176785
0.153500
0.131045
0.109566
0.089185
0.069988
0.052009
0.035202
0.019513
0.004779
-0.009101
-0.022344
-0.035094
-0.047518
-0.059735
-0.071827
-0.083829
-0.095725
-0.107424
-0.118834
-0.129801
-0.140211
-0.149898
-0.158767
-0.166734
-0.173778
-0.179933
-0.185278
-0.189981
-0.194198
-0.198137
-0.202016
-0.206014
-0.210296
-0.214975
-0.220113
-0.225679
-0.231605
-0.237733
-0.243897
-0.249880
-0.255457
-0.260417
-0.264579
-0.267791
-0.269996
-0.271174
-0.271373
-0.270720
-0.269376
-0.267524
-0.265384
-0.263175
-0.261065
-0.259216
-0.257718
-0.256606
-0.255855
-0.255394
-0.255078
-0.254796
-0.254351
-0.253593
-0.252406
-0.250666
-0.248362
-0.245477
-0.242119
-0.238376
-0.234441
-0.230489
-0.226714
-0.223302
-0.220438
-0.218229
-0.216731
-0.215965
-0.215847
-0.216298
-0.217129
-0.218176
-0.219251
-0.220125
-0.220678
-0.220719
-0.220228
-0.219144
-0.217533
-0.215496
-0.213139
-0.210668
-0.208227
-0.206022
-0.204205
-0.202906
-0.202212
-0.202114
-0.202585
-0.203531
-0.204801
-0.206228
-0.207635
-0.208821
-0.209614
-0.209884
-0.209527
-0.208526
-0.206888
-0.204717
-0.202113
-0.199236
-0.196287
-0.193410
-0.190821
-0.188624
-0.186897
-0.185678
-0.184934
-0.184595
-0.184522
-0.184568
-0.184585
-0.184384
-0.183810
-0.182775
-0.181209
-0.179125
-0.176588
-0.173700
-0.170641
-0.167595
-0.164758
-0.162327
-0.160461
-0.159297
-0.158884
-0.159211
-0.160241
-0.161825
-0.163806
-0.166011
-0.168197
-0.170216
-0.171840
-0.173002
-0.173592
-0.173643
-0.173210
-0.172385
-0.171385
-0.170337
-0.169497
-0.169025
-0.169097
-0.169821
-0.171245
-0.173362
-0.176076
-0.179259
-0.182702
-0.186204
-0.189523
-0.192428
-0.194717
-0.196249
-0.196928
-0.196726
-0.195695
-0.193974
-0.191695
-0.189086
-0.186363
-0.183762
-0.181497
-0.179710
-0.178529
-0.178002
-0.178110
-0.178796
-0.179920
-0.181320
-0.182796
-0.184163
-0.185259
-0.185935
-0.186120
-0.185776
-0.184928
-0.183646
-0.182072
-0.180338
-0.178666
-0.177195
-0.176109
-0.175506
-0.175474
-0.176012
-0.177084
-0.178608
-0.180408
-0.182324
-0.184146
-0.185650
-0.186709
-0.187128
-0.186847
-0.185811
-0.184063
-0.181664
-0.178789
-0.175581
-0.172281
-0.169085
-0.166171
-0.163714
-0.161795
-0.160507
-0.159792
-0.159607
-0.159818
-0.160258
-0.160758
-0.161095
-0.161120
-0.160686
-0.159701
-0.158151
-0.156065
-0.153535
-0.150717
-0.147771
-0.144879
-0.142242
-0.140001
-0.138304
-0.137237
-0.136786
-0.136935
-0.137544
-0.138492
-0.139577
-0.140614
-0.141427
-0.141842
-0.141742
-0.141071
-0.139817
-0.138045
-0.135854
-0.133428
-0.130935
-0.128585
-0.126575
-0.125070
-0.124176
-0.123983
-0.124472
-0.125598
-0.127208
-0.129169
-0.131246
-0.133206
-0.134871
-0.136004
-0.136480
-0.136194
-0.135120
-0.133286
-0.130815
-0.127827
-0.124546
-0.121145
-0.117852
-0.114861
-0.112298
-0.110297
-0.108891
-0.108063
-0.107771
-0.107870
-0.108217
-0.108650
-0.109003
-0.109118
-0.108909
-0.108293
-0.107259
-0.105835
-0.104105
-0.102203
-0.100270
-0.098481
-0.096984
-0.095908
-0.095360
-0.095364
-0.095918
-0.096963
-0.098380
-0.100029
-0.101725
-0.103288
-0.104542
-0.105325
-0.105555
-0.105164
-0.104165
-0.102653
-0.100729
-0.098580
-0.096392
-0.094403
-0.092798
-0.091723
-0.091320
-0.091571
-0.092491
-0.093936
-0.095726
-0.097612
-0.099309
-0.100514
-0.100920
-0.100262
-0.098348
-0.095015
-0.090206
-0.083966
-0.076374
-0.067658
-0.058057
-0.047846
-0.037332
-0.026793
-0.016475
-0.006589
0.002730
0.011409
0.019472
0.026964
0.034015
0.040805
0.047468
0.054205
0.061159
0.068431
0.076135
0.084251
0.092772
0.101621
0.110666
0.119788
0.128842
0.137691
0.146256
0.154420
0.162170
0.169530
0.176509
0.183222
0.189723
0.196164
0.202600
0.209104
0.215750
0.222485
0.229285
0.236040
0.242578
0.248782
0.254389
0.259285
0.263242
0.266133
0.267898
0.268447
0.267861
0.266170
0.263521
0.260072
0.256021
0.251571
0.246906
0.242196
0.237551
0.233055
0.228671
0.224390
0.220061
0.215559
0.210689
0.205258
0.199083
0.191990
0.183870
0.174644
0.164315
0.152933
0.140601
0.127506
0.113850
0.099864
0.085789
0.071863
0.058250
0.045159
0.032656
0.020813
0.009643
-0.000940
-0.010997
-0.020654
-0.030027
-0.039215
-0.048310
-0.057332
-0.066299
-0.075137
-0.083791
-0.092091
-0.099903
-0.107069
-0.113425
-0.118855
-0.123271
-0.126649
-0.129026
-0.130497
-0.131200
-0.131365
-0.131191
-0.130933
-0.130808
-0.131027
-0.131740
-0.133063
-0.135014
-0.137593
-0.140708
-0.144222
-0.148007
-0.151860
-0.155613
-0.159133
-0.162265
-0.164973
-0.167199
-0.168971
-0.170314
-0.171292
-0.171957
-0.172345
-0.172436
-0.172086
-0.171135
-0.169259
-0.166021
-0.160888
-0.153209
-0.142234
-0.127156
-0.107120
-0.081239
-0.048731
-0.008777
0.039301
0.096069
0.161991
0.237317
0.322208
0.416608
0.520312
0.632999
0.754135
0.883108
1.019141
1.161322
1.308573
1.459721
1.613444
1.768268
1.922501
2.074387
2.221945
2.363069
2.495532
2.617074
2.725394
2.818135
2.893165
2.948431
2.982157
2.992941
2.979730
2.941982
2.879663
2.793281
2.683943
2.553275
2.403440
2.237045
2.057095
1.866867
1.669811
1.469482
1.269354
1.072729
0.882678
0.701855
0.532560
0.376586
0.235221
0.109266
-0.000930
-0.095498
-0.174936
-0.240065
-0.291989
-0.331930
-0.361311
-0.381526
-0.393990
-0.400071
-0.400998
-0.397958
-0.391946
-0.383843
-0.374378
-0.364137
-0.353603
-0.343095
-0.332882
-0.323079
-0.313780
-0.304973
-0.296645
-0.288685
-0.281028
-0.273545
-0.266118
-0.258696
-0.251160
-0.243556
-0.235853
-0.228114
-0.220471
-0.213001
-0.205921
-0.199347
-0.193496
-0.188514
-0.184516
-0.181611
-0.179801
-0.179042
-0.179264
-0.180264
-0.181839
-0.183742
-0.185688
-0.187381
-0.188566
-0.188992
-0.188486
-0.186931
-0.184296
-0.180612
-0.175994
-0.170636
-0.164734
-0.158539
-0.152310
-0.146253
-0.140611
-0.135496
-0.131010
-0.127185
-0.123939
-0.121185
-0.118736
-0.116407
-0.113979
-0.111270
-0.108095
-0.104335
-0.099901
-0.094787
-0.089044
-0.082754
-0.076113
-0.069269
-0.062454
-0.055854
-0.049645
-0.043989
-0.038933
-0.034567
-0.030814
-0.027627
-0.024856
-0.022325
-0.019891
-0.017332
-0.014491
-0.011281
-0.007564
-0.003400
0.001223
0.006167
0.011267
0.016380
0.021229
0.025669
0.029502
0.032583
0.034843
0.036286
0.036961
0.037019
0.036649
0.036094
0.035626
0.035485
0.035959
0.037213
0.039412
0.042642
0.046905
0.052143
0.058202
0.064923
0.072090
0.079505
0.086929
0.094225
0.101230
0.107882
0.114195
0.120204
0.126036
0.131838
0.137786
0.144054
0.150820
0.158229
0.166352
0.175243
0.184867
0.195137
0.205925
0.217045
0.228327
0.239569
0.250592
0.261263
0.271479
0.281207
0.290464
0.299332
0.307960
0.316478
0.325083
0.333969
0.343263
0.353128
0.363626
0.374776
0.386581
0.398906
0.411650
0.424656
0.437718
0.450696
0.463413
0.475758
0.487675
0.499133
0.510203
0.520947
0.531546
0.542163
0.552985
0.564197
0.575942
0.588362
0.601510
0.615419
0.630009
0.645202
0.660808
0.676659
0.692531
0.708183
0.723464
0.738138
0.752150
0.765379
0.777827
0.789578
0.800660
0.811241
0.821473
0.831482
0.841438
0.851430
0.861558
0.871819
0.882164
0.892518
0.902751
0.912673
0.922117
0.930897
0.938859
0.945865
0.951851
0.956804
0.960752
0.963836
0.966169
0.967951
0.969377
0.970611
0.971857
0.973167
0.974630
0.976211
0.977813
0.979275
0.980379
0.980843
0.980415
0.978780
0.975687
0.970908
0.964286
0.955716
0.945192
0.932773
0.918574
0.902769
0.885566
0.867195
0.847866
0.827799
0.807144
0.786014
0.764485
0.742547
0.720192
0.697320
0.673880
0.649782
0.624933
0.599341
0.572963
0.545880
0.518192
0.490022
0.461585
0.433089
0.404740
0.376761
0.349339
0.322606
0.296669
0.271553
0.247244
0.223650
0.200661
0.178150
0.155928
0.133892
0.111869
0.089823
0.067676
0.045466
0.023264
0.001180
-0.020578
-0.041860
-0.062449
-0.082182
-0.100870
-0.118419
-0.134753
-0.149875
-0.163834
-0.176753
-0.188801
-0.200141
-0.210988
-0.221517
-0.231905
-0.242280
-0.252715
-0.263229
-0.273780
-0.284251
-0.294495
-0.304347
-0.313591
-0.322059
-0.329564
-0.335968
-0.341235
-0.345319
-0.348331
-0.350373
-0.351629
-0.352329
-0.352702
-0.352984
-0.353406
-0.354162
-0.355375
-0.357090
-0.359333
-0.361971
-0.364924
-0.367989
-0.370967
-0.373643
-0.375839
-0.377385
-0.378194
-0.378204
-0.377471
-0.376059
-0.374120
-0.371858
-0.369436
-0.367123
-0.365083
-0.363492
-0.362474
-0.362064
-0.362271
-0.363021
-0.364179
-0.365597
-0.367074
-0.368414
-0.369449
-0.370002
-0.369994
-0.369359
-0.368077
-0.366243
-0.363923
-0.361302
-0.358494
-0.355695
-0.353055
-0.350656
-0.348624
-0.346945
-0.345626
-0.344578
-0.343697
-0.342857
-0.341897
-0.340681
-0.339066
-0.336978
-0.334339
-0.331185
-0.327555
-0.323556
-0.319345
-0.315042
-0.310855
-0.306942
-0.303427
-0.300429
-0.298009
-0.296168
-0.294865
-0.293999
-0.293439
-0.293030
-0.292620
-0.292035
-0.291155
-0.289870
-0.288124
-0.285939
-0.283341
-0.280477
-0.277437
-0.274400
-0.271531
-0.268959
-0.266848
-0.265266
-0.264281
-0.263850
-0.263915
-0.264334
-0.264956
-0.265588
-0.266021
-0.266080
-0.265579
-0.264421
-0.262504
-0.259873
-0.256568
-0.252716
-0.248513
-0.244142
-0.239859
-0.235865
-0.232386
-0.229592
-0.227559
-0.226357
-0.225921
-0.226177
-0.226966
-0.228106
-0.229350
-0.230495
-0.231343
-0.231697
-0.231487
-0.230620
-0.229152
-0.227134
-0.224694
-0.222025
-0.219290
-0.216713
-0.214480
-0.212730
-0.211580
-0.211062
-0.211171
-0.211839
-0.212958
-0.214372
-0.215913
-0.217415
-0.218723
-0.219714
-0.220327
-0.220530
-0.220343
-0.219861
-0.219177
-0.218473
-0.217877
-0.217565
-0.217652
-0.218235
-0.219340
-0.220982
-0.223062
-0.225489
-0.228095
-0.230692
-0.233108
-0.235167
-0.236710
-0.237641
-0.237896
-0.237527
-0.236568
-0.235173
-0.233482
-0.231700
-0.230018
-0.228618
-0.227668
-0.227289
-0.227530
-0.228390
-0.229811
-0.231650
-0.233772
-0.235981
-0.238067
-0.239868
-0.241180
-0.241897
-0.241950
-0.241322
-0.240078
-0.238321
-0.236202
-0.233913
-0.231646
-0.229640
-0.228042
-0.227039
-0.226708
-0.227088
-0.228174
-0.229861
-0.232055
-0.234559
-0.237180
-0.239741
-0.242012
-0.243876
-0.245196
-0.245913
-0.246032
-0.245578
-0.244679
-0.243427
-0.242036
-0.240629
-0.239384
-0.238415
-0.237796
-0.237559
-0.237693
-0.238119
-0.238727
-0.239384
-0.239904
-0.240155
-0.239985
-0.239302
-0.238059
-0.236229
-0.233885
-0.231132
-0.228089
-0.224961
-0.221907
-0.219105
-0.216755
-0.214895
-0.213680
-0.213081
-0.213044
-0.213511
-0.214331
-0.215329
-0.216363
-0.217252
-0.217856
-0.218083
-0.217861
-0.217198
-0.216144
-0.214807
-0.213314
-0.211862
-0.210595
-0.209710
-0.209320
-0.209536
-0.210372
-0.211849
-0.213841
-0.216279
-0.218962
-0.221721
-0.224342
-0.226637
-0.228438
-0.229618
-0.230129
-0.229964
-0.229181
-0.227891
-0.226258
-0.224412
-0.222602
-0.220987
-0.219715
-0.218954
-0.218735
-0.219084
-0.219975
-0.221281
-0.222912
-0.224649
-0.226385
-0.227891
-0.229043
-0.229733
-0.229853
-0.229432
-0.228475
-0.227056
-0.225300
-0.223354
-0.221372
-0.219518
-0.217926
-0.216687
-0.215885
-0.215484
-0.215484
-0.215774
-0.216235
-0.216714
-0.217042
-0.217063
-0.216623
-0.215632
-0.214036
-0.211811
-0.209038
-0.205787
-0.202190
-0.198459
-0.194723
-0.191211
-0.188036
-0.185334
-0.183164
-0.181494
-0.180313
-0.179459
-0.178811
-0.178168
-0.177286
-0.176017
-0.174125
-0.171493
-0.168041
-0.163705
-0.158527
-0.152578
-0.145963
-0.138859
-0.131407
-0.123778
-0.116124
-0.108527
-0.101066
-0.093727
-0.086456
-0.079189
-0.071760
-0.064059
-0.055882
-0.047131
-0.037663
-0.027431
-0.016420
-0.004685
0.007682
0.020527
0.033639
0.046831
0.059841
0.072517
0.084641
0.096120
0.106881
0.116918
0.126270
0.135056
0.143401
0.151476
0.159431
0.167403
0.175510
0.183753
0.192139
0.200570
0.208889
0.216906
0.224357
0.230985
0.236517
0.240701
0.243364
0.244354
0.243632
0.241213
0.237182
0.231731
0.225075
0.217501
0.209284
0.200700
0.192021
0.183421
0.175059
0.167029
0.159309
0.151869
0.144552
0.137210
0.129646
0.121662
0.113094
0.103783
0.093659
0.082684
0.070882
0.058368
0.045314
0.031891
0.018372
0.004958
-0.008108
-0.020631
-0.032452
-0.043462
-0.053629
-0.062963
-0.071525
-0.079449
-0.086880
-0.093953
-0.100822
-0.107590
-0.114333
-0.121075
-0.127809
-0.134438
-0.140862
-0.146921
-0.152470
-0.157317
-0.161362
-0.164491
-0.166661
-0.167882
-0.168209
-0.167777
-0.166760
-0.165376
-0.163834
-0.162385
-0.161217
-0.160524
-0.160420
-0.160993
-0.162261
-0.164192
-0.166683
-0.169646
-0.172922
-0.176345
-0.179846
-0.183251
-0.186489
-0.189545
-0.192356
-0.194947
-0.197352
-0.199595
-0.201675
-0.203541
-0.205075
-0.206099
-0.206311
-0.205321
-0.202627
-0.197629
-0.189686
-0.177970
-0.161737
-0.140191
-0.112518
-0.077958
-0.035800
0.014527
0.073540
0.141604
0.218957
0.305685
0.401770
0.507034
0.621153
0.743691
0.874053
1.011495
1.155109
1.303899
1.456634
1.611921
1.768203
1.923691
2.076500
2.224416
2.365259
2.496642
2.616141
2.721332
2.809820
2.879451
2.928183
2.954363
2.956714
2.934394
2.887115
2.815122
2.719239
2.600868
2.461965
2.304963
2.132732
1.948458
1.755580
1.557661
1.358224
1.160720
0.968341
0.783995
0.610166
0.448892
0.301740
0.169736
0.053479
-0.046975
-0.131929
-0.202091
-0.258441
-0.302206
-0.334758
-0.357553
-0.372111
-0.379844
-0.382193
-0.380408
-0.375653
-0.368918
-0.361022
-0.352674
-0.344378
-0.336485
-0.329276
-0.322814
-0.317165
-0.312230
-0.307877
-0.303946
-0.300193
-0.296435
-0.292445
-0.288059
-0.283147
-0.277615
-0.271471
-0.264723
-0.257506
-0.249960
-0.242272
-0.234701
-0.227462
-0.220782
-0.214890
-0.209894
-0.205930
-0.203003
-0.201057
-0.199988
-0.199603
-0.199673
-0.199943
-0.200124
-0.199982
-0.199264
-0.197823
-0.195529
-0.192371
-0.188385
-0.183676
-0.178429
-0.172857
-0.167186
-0.161704
-0.156618
-0.152114
-0.148323
-0.145296
-0.143017
-0.141412
-0.140303
-0.139505
-0.138777
-0.137849
-0.136525
-0.134560
-0.131837
-0.128238
-0.123761
-0.118442
-0.112413
-0.105860
-0.099033
-0.092178
-0.085568
-0.079427
-0.073932
-0.069267
-0.065455
-0.062536
-0.060423
-0.058962
-0.057966
-0.057187
-0.056387
-0.055312
-0.053750
-0.051524
-0.048475
-0.044604
-0.039864
-0.034339
-0.028200
-0.021550
-0.014612
-0.007546
-0.000540
0.006273
0.012796
0.018991
0.024851
0.030448
0.035872
0.041246
0.046707
0.052360
0.058314
0.064641
0.071372
0.078494
0.085933
0.093599
0.101359
0.109049
0.116571
0.123761
0.130560
0.136930
0.142843
0.148419
0.153693
0.158862
0.164072
0.169523
0.175393
0.181830
0.188946
0.196813
0.205404
0.214682
0.224533
0.234801
0.245302
0.255832
0.266222
0.276278
0.285875
0.294958
0.303465
0.311484
0.319096
0.326436
0.333727
0.341100
0.348767
0.356879
0.365562
0.374915
0.384928
0.395607
0.406840
0.418503
0.430451
0.442495
0.454520
0.466364
0.477960
0.489248
0.500227
0.510974
0.521563
0.532156
0.542914
0.554013
0.565589
0.577808
0.590726
0.604387
0.618758
0.633776
0.649262
0.665069
0.680950
0.696684
0.712042
0.726805
0.740820
0.753943
0.766142
0.777409
0.787813
0.797498
0.806598
0.815320
0.823837
0.832331
0.840981
0.849861
0.859077
0.868590
0.878363
0.888293
0.898209
0.907974
0.917407
0.926337
0.934635
0.942178
0.948920
0.954838
0.959971
0.964411
0.968227
0.971563
0.974512
0.977152
0.979560
0.981721
0.983631
0.985215
0.986293
0.986744
0.986358
0.984933
0.982305
0.978269
0.972757
0.965672
0.956993
0.946799
0.935159
0.922243
0.908200
0.893239
0.877518
0.861196
0.844385
0.827144
0.809504
0.791397
0.772758
0.753443
0.733319
0.712226
0.690024
0.666633
0.641973
0.616061
0.588979
0.560819
0.531826
0.502187
0.472202
0.442120
0.412204
0.382691
0.353752
0.325537
0.298115
0.271474
0.245588
0.220328
0.195573
0.171167
0.146960
0.122876
0.098777
0.074684
0.050584
0.026546
0.002743
-0.020703
-0.043564
-0.065636
-0.086737
-0.106686
-0.125349
-0.142633
-0.158530
-0.173057
-0.186322
-0.198462
-0.209668
-0.220116
-0.230029
-0.239572
-0.248902
-0.258158
-0.267383
-0.276595
-0.285754
-0.294761
-0.303511
-0.311863
-0.319674
-0.326849
-0.333227
-0.338791
-0.343510
-0.347411
-0.350595
-0.353163
-0.355266
-0.357067
-0.358690
-0.360302
-0.361982
-0.363799
-0.365764
-0.367804
-0.369881
-0.371838
-0.373565
-0.374905
-0.375720
-0.375943
-0.375472
-0.374304
-0.372498
-0.370125
-0.367356
-0.364344
-0.361302
-0.358414
-0.355843
-0.353759
-0.352233
-0.351307
-0.350949
-0.351050
-0.351484
-0.352041
-0.352522
-0.352701
-0.352392
-0.351425
-0.349690
-0.347140
-0.343816
-0.339796
-0.335252
-0.330387
-0.325454
-0.320665
-0.316299
-0.312519
-0.309514
-0.307356
-0.306079
-0.305640
-0.305903
-0.306728
-0.307883
-0.309156
-0.310345
-0.311211
-0.311616
-0.311458
-0.310663
-0.309292
-0.307372
-0.305050
-0.302466
-0.299781
-0.297185
-0.294803
-0.292766
-0.291154
-0.289973
-0.289191
-0.288739
-0.288466
-0.288275
-0.287967
-0.287441
-0.286530
-0.285160
-0.283300
-0.280919
-0.278127
-0.274996
-0.271693
-0.268403
-0.265264
-0.262514
-0.260261
-0.258612
-0.257678
-0.257388
-0.257749
-0.258606
-0.259815
-0.261195
-0.262549
-0.263660
-0.264381
-0.264558
-0.264128
-0.263063
-0.261399
-0.259252
-0.256774
-0.254139
-0.251581
-0.249279
-0.247416
-0.246142
-0.245517
-0.245592
-0.246291
-0.247560
-0.249206
-0.251084
-0.252954
-0.254628
-0.255937
-0.256722
-0.256879
-0.256391
-0.255284
-0.253658
-0.251653
-0.249439
-0.247218
-0.245185
-0.243521
-0.242372
-0.241816
-0.241902
-0.242576
-0.243767
-0.245334
-0.247111
-0.248905
-0.250521
-0.251768
-0.252539
-0.252714
-0.252276
-0.251244
-0.249689
-0.247741
-0.245537
-0.243272
-0.241089
-0.239175
-0.237615
-0.236505
-0.235864
-0.235650
-0.235788
-0.236177
-0.236662
-0.237098
-0.237353
-0.237284
-0.236805
-0.235902
-0.234560
-0.232854
-0.230884
-0.228766
-0.226675
-0.224753
-0.223140
-0.221949
-0.221256
-0.221092
-0.221421
-0.222162
-0.223221
-0.224420
-0.225621
-0.226635
-0.227315
-0.227538
-0.227213
-0.226330
-0.224880
-0.222982
-0.220705
-0.218242
-0.215745
-0.213395
-0.211365
-0.209786
-0.208753
-0.208327
-0.208474
-0.209139
-0.210212
-0.211522
-0.212908
-0.214172
-0.215144
-0.215679
-0.215660
-0.215052
-0.213840
-0.212109
-0.209985
-0.207612
-0.205203
-0.202945
-0.201026
-0.199627
-0.198846
-0.198736
-0.199313
-0.200500
-0.202192
-0.204219
-0.206357
-0.208427
-0.210203
-0.211523
-0.212210
-0.212234
-0.211544
-0.210201
-0.208301
-0.206000
-0.203488
-0.200956
-0.198614
-0.196640
-0.195184
-0.194311
-0.194067
-0.194424
-0.195277
-0.196520
-0.197959
-0.199428
-0.200744
-0.201737
-0.202290
-0.202334
-0.201828
-0.200823
-0.199386
-0.197654
-0.195765
-0.193887
-0.192177
-0.190751
-0.189706
-0.189078
-0.188846
-0.188950
-0.189256
-0.189646
-0.189925
-0.189945
-0.189536
-0.188566
-0.186994
-0.184781
-0.181978
-0.178714
-0.175120
-0.171404
-0.167788
-0.164474
-0.161688
-0.159587
-0.158292
-0.157872
-0.158298
-0.159496
-0.161348
-0.163647
-0.166181
-0.168729
-0.171031
-0.172892
-0.174139
-0.174656
-0.174395
-0.173355
-0.171626
-0.169293
-0.166551
-0.163564
-0.160513
-0.157629
-0.154989
-0.152752
-0.150969
-0.149629
-0.148703
-0.148079
-0.147659
-0.147281
-0.146805
-0.146127
-0.145132
-0.143781
-0.142066
-0.140066
-0.137852
-0.135592
-0.133422
-0.131538
-0.130094
-0.129226
-0.129024
-0.129523
-0.130700
-0.132443
-0.134635
-0.137049
-0.139481
-0.141698
-0.143452
-0.144581
-0.144903
-0.144345
-0.142900
-0.140609
-0.137591
-0.134032
-0.130146
-0.126195
-0.122397
-0.118992
-0.116173
-0.114045
-0.112701
-0.112133
-0.112272
-0.113034
-0.114214
-0.115639
-0.117123
-0.118452
-0.119493
-0.120148
-0.120336
-0.120082
-0.119429
-0.118472
-0.117358
-0.116217
-0.115214
-0.114439
-0.114027
-0.113991
-0.114341
-0.115035
-0.115942
-0.116942
-0.117853
-0.118520
-0.118766
-0.118484
-0.117571
-0.116012
-0.113789
-0.111011
-0.107785
-0.104274
-0.100694
-0.097187
-0.093985
-0.091204
-0.088978
-0.087357
-0.086334
-0.085886
-0.085878
-0.086185
-0.086623
-0.086979
-0.087087
-0.086732
-0.085781
-0.084125
-0.081712
-0.078520
-0.074617
-0.070057
-0.064960
-0.059465
-0.053665
-0.047720
-0.041681
-0.035643
-0.029590
-0.023513
-0.017356
-0.010994
-0.004347
0.002721
0.010310
0.018522
0.027376
0.036919
0.047037
0.057690
0.068720
0.079971
0.091290
0.102489
0.113433
0.123998
0.134106
0.143787
0.153047
0.162000
0.170795
0.179581
0.188566
0.197903
0.207769
0.218264
0.229399
0.241176
0.253449
0.266070
0.278778
0.291279
0.303266
0.314369
0.324301
0.332755
0.339535
0.344478
0.347516
0.348664
0.348018
0.345743
0.342035
0.337176
0.331389
0.324935
0.317994
0.310750
0.303312
0.295705
0.287953
0.279961
0.271647
0.262902
0.253594
0.243663
0.233021
0.221688
0.209669
0.197096
0.184088
0.170816
0.157504
0.144351
0.131559
0.119275
0.107658
0.096740
0.086584
0.077138
0.068294
0.059956
0.051952
0.044147
0.036367
0.028493
0.020443
0.012171
0.003679
-0.004960
-0.013638
-0.022219
-0.030543
-0.038440
-0.045749
-0.052336
-0.058104
-0.063023
-0.067078
-0.070357
-0.072954
-0.075005
-0.076723
-0.078259
-0.079821
-0.081584
-0.083639
-0.086102
-0.088991
-0.092283
-0.095926
-0.099801
-0.103791
-0.107754
-0.111529
-0.115045
-0.118187
-0.120918
-0.123278
-0.125280
-0.127013
-0.128581
-0.130093
-0.131649
-0.133283
-0.134999
-0.136679
-0.138136
-0.139042
-0.138997
-0.137477
-0.133851
-0.127394
-0.117333
-0.102899
-0.083228
-0.057582
-0.025191
0.014581
0.062364
0.118619
0.183706
0.257868
0.341212
0.433734
0.535304
0.645645
0.764392
0.891034
1.024878
1.165173
1.310894
1.460925
1.613941
1.768406
1.922627
2.074611
2.222310
2.363460
2.495677
2.616555
2.723654
2.814659
2.887335
2.939722
2.970175
2.977417
2.960637
2.919534
2.854286
2.765679
2.655016
2.524085
2.375198
2.210953
2.034374
1.848643
1.657054
1.462990
1.269656
1.080167
0.897342
0.723652
0.561227
0.411732
0.276408
0.156011
0.050912
-0.039010
-0.114163
-0.175323
-0.223527
-0.260000
-0.286146
-0.303399
-0.313284
-0.317210
-0.316586
-0.312678
-0.306585
-0.299286
-0.291566
-0.284000
-0.277034
-0.270884
-0.265670
-0.261330
-0.257732
-0.254639
-0.251780
-0.248848
-0.245541
-0.241611
-0.236863
-0.231128
-0.224408
-0.216696
-0.208161
-0.198989
-0.189450
-0.179863
-0.170519
-0.161772
-0.153871
-0.147069
-0.141514
-0.137281
-0.134340
-0.132583
-0.131823
-0.131781
-0.132176
-0.132677
-0.132939
-0.132688
-0.131685
-0.129754
-0.126836
-0.122907
-0.118088
-0.112522
-0.106471
-0.100156
-0.093899
-0.087943
-0.082536
-0.077847
-0.073990
-0.070987
-0.068805
-0.067304
-0.066303
-0.065592
-0.064883
-0.063992
-0.062645
-0.060722
-0.058113
-0.054758
-0.050721
-0.046098
-0.041044
-0.035787
-0.030522
-0.025483
-0.020857
-0.016785
-0.013370
-0.010636
-0.008550
-0.006996
-0.005817
-0.004833
-0.003780
-0.002513
-0.000787
0.001523
0.004527
0.008297
0.012778
0.017946
0.023682
0.029824
0.036238
0.042743
0.049201
0.055500
0.061522
0.067265
0.072711
0.077929
0.082990
0.088015
0.093122
0.098396
0.103972
0.109878
0.116166
0.122812
0.129774
0.136929
0.144183
0.151349
0.158308
0.164911
0.171067
0.176682
0.181760
0.186286
0.190379
0.194124
0.197722
0.201333
0.205143
0.209349
0.214073
0.219466
0.225539
0.232319
0.239734
0.247690
0.256010
0.264556
0.273131
0.281578
0.289766
0.297575
0.304979
0.311992
0.318694
0.325222
0.331738
0.338481
0.345604
0.353349
0.361852
0.371242
0.381601
0.392910
0.405109
0.418054
0.431568
0.445421
0.459414
0.473284
0.486869
0.499980
0.512505
0.524438
0.535767
0.546587
0.557039
0.567291
0.577529
0.587941
0.598698
0.609937
0.621718
0.634079
0.646960
0.660266
0.673872
0.687574
0.701240
0.714666
0.727693
0.740238
0.752207
0.763634
0.774562
0.785104
0.795421
0.805675
0.816046
0.826685
0.837732
0.849269
0.861306
0.873813
0.886663
0.899726
0.912778
0.925613
0.937966
0.949654
0.960413
0.970164
0.978723
0.986121
0.992359
0.997498
1.001723
1.005110
1.007889
1.010208
1.012222
1.014052
1.015756
1.017362
1.018802
1.019998
1.020795
1.021030
1.020522
1.019065
1.016501
1.012684
1.007526
1.000960
0.993040
0.983803
0.973367
0.961879
0.949466
0.936299
0.922513
0.908203
0.893472
0.878312
0.862715
0.846603
0.829850
0.812366
0.793989
0.774619
0.754172
0.732570
0.709832
0.686003
0.661188
0.635546
0.609265
0.582563
0.555671
0.528789
0.502107
0.475771
0.449895
0.424486
0.399533
0.374989
0.350705
0.326617
0.302575
0.278450
0.254222
0.229763
0.205161
0.180444
0.155767
0.131298
0.107244
0.083845
0.061291
0.039804
0.019518
0.000551
-0.017071
-0.033368
-0.048476
-0.062517
-0.075726
-0.088311
-0.100483
-0.112502
-0.124474
-0.136584
-0.148853
-0.161272
-0.173763
-0.186190
-0.198339
-0.210054
-0.221111
-0.231325
-0.240561
-0.248696
-0.255710
-0.261624
-0.266538
-0.270611
-0.274008
-0.276980
-0.279721
-0.282421
-0.285248
-0.288363
-0.291767
-0.295502
-0.299458
-0.303540
-0.307558
-0.311342
-0.314697
-0.317435
-0.319409
-0.320508
-0.320675
-0.319944
-0.318375
-0.316121
-0.313352
-0.310288
-0.307138
-0.304105
-0.301413
-0.299179
-0.297498
-0.296415
-0.295849
-0.295726
-0.295869
-0.296117
-0.296268
-0.296134
-0.295548
-0.294371
-0.292514
-0.289997
-0.286819
-0.283140
-0.279083
-0.274842
-0.270625
-0.266613
-0.263005
-0.259911
-0.257446
-0.255605
-0.254373
-0.253628
-0.253244
-0.253026
-0.252784
-0.252349
-0.251530
-0.250203
-0.248306
-0.245777
-0.242726
-0.239198
-0.235384
-0.231434
-0.227564
-0.223958
-0.220791
-0.218209
-0.216264
-0.215008
-0.214363
-0.214263
-0.214535
-0.215014
-0.215531
-0.215871
-0.215890
-0.215471
-0.214544
-0.213096
-0.211217
-0.208993
-0.206580
-0.204175
-0.201940
-0.200067
-0.198725
-0.197988
-0.197949
-0.198543
-0.199722
-0.201318
-0.203169
-0.205084
-0.206833
-0.208234
-0.209119
-0.209332
-0.208847
-0.207619
-0.205733
-0.203294
-0.200463
-0.197435
-0.194425
-0.191629
-0.189213
-0.187342
-0.186074
-0.185467
-0.185478
-0.186058
-0.187066
-0.188389
-0.189856
-0.191271
-0.192537
-0.193515
-0.194116
-0.194361
-0.194242
-0.193814
-0.193221
-0.192549
-0.191942
-0.191565
-0.191474
-0.191784
-0.192515
-0.193638
-0.195094
-0.196771
-0.198541
-0.200226
-0.201683
-0.202743
-0.203279
-0.203240
-0.202556
-0.201327
-0.199580
-0.197489
-0.195219
-0.192948
-0.190889
-0.189224
-0.188118
-0.187676
-0.187938
-0.188890
-0.190448
-0.192473
-0.194795
-0.197188
-0.199417
-0.201321
-0.202651
-0.203295
-0.203174
-0.202229
-0.200557
-0.198225
-0.195415
-0.192303
-0.189098
-0.186028
-0.183257
-0.180957
-0.179242
-0.178133
-0.177636
-0.177681
-0.178138
-0.178867
-0.179710
-0.180486
-0.181069
-0.181351
-0.181261
-0.180789
-0.179999
-0.178964
-0.177822
-0.176725
-0.175842
-0.175279
-0.175200
-0.175639
-0.176625
-0.178122
-0.180007
-0.182177
-0.184396
-0.186530
-0.188350
-0.189693
-0.190422
-0.190402
-0.189657
-0.188147
-0.185997
-0.183330
-0.180310
-0.177163
-0.174052
-0.171186
-0.168698
-0.166743
-0.165330
-0.164517
-0.164199
-0.164300
-0.164678
-0.165138
-0.165546
-0.165690
-0.165444
-0.164718
-0.163437
-0.161618
-0.159326
-0.156666
-0.153788
-0.150886
-0.148125
-0.145719
-0.143776
-0.142450
-0.141757
-0.141717
-0.142274
-0.143273
-0.144613
-0.146047
-0.147416
-0.148530
-0.149193
-0.149337
-0.148844
-0.147737
-0.146043
-0.143903
-0.141448
-0.138878
-0.136394
-0.134178
-0.132410
-0.131193
-0.130618
-0.130677
-0.131346
-0.132491
-0.133993
-0.135620
-0.137195
-0.138525
-0.139397
-0.139740
-0.139406
-0.138424
-0.136825
-0.134708
-0.132242
-0.129604
-0.127014
-0.124668
-0.122747
-0.121389
-0.120671
-0.120610
-0.121190
-0.122270
-0.123719
-0.125332
-0.126892
-0.128206
-0.129078
-0.129378
-0.129019
-0.127979
-0.126304
-0.124117
-0.121561
-0.118828
-0.116171
-0.113738
-0.111770
-0.110364
-0.109643
-0.109634
-0.110278
-0.111500
-0.113158
-0.115044
-0.116987
-0.118786
-0.120251
-0.121230
-0.121640
-0.121417
-0.120567
-0.119167
-0.117308
-0.115120
-0.112779
-0.110403
-0.108157
-0.106156
-0.104445
-0.103088
-0.102009
-0.101209
-0.100561
-0.099951
-0.099283
-0.098366
-0.097162
-0.095554
-0.093519
-0.091101
-0.088341
-0.085332
-0.082234
-0.079186
-0.076368
-0.073941
-0.072013
-0.070719
-0.070047
-0.070029
-0.070562
-0.071554
-0.072860
-0.074281
-0.075647
-0.076769
-0.077498
-0.077705
-0.077330
-0.076367
-0.074848
-0.072881
-0.070573
-0.068138
-0.065685
-0.063455
-0.061535
-0.060071
-0.059109
-0.058649
-0.058664
-0.059042
-0.059646
-0.060311
-0.060864
-0.061160
-0.061042
-0.060424
-0.059253
-0.057551
-0.055376
-0.052867
-0.050169
-0.047493
-0.045004
-0.042931
-0.041400
-0.040543
-0.040427
-0.041006
-0.042245
-0.043986
-0.046052
-0.048255
-0.050352
-0.052154
-0.053463
-0.054120
-0.054071
-0.053273
-0.051764
-0.049682
-0.047137
-0.044348
-0.041493
-0.038760
-0.036346
-0.034342
-0.032862
-0.031900
-0.031408
-0.031338
-0.031498
-0.031775
-0.032017
-0.032020
-0.031695
-0.030911
-0.029642
-0.027891
-0.025701
-0.023186
-0.020520
-0.017805
-0.015256
-0.012993
-0.011132
-0.009793
-0.008974
-0.008663
-0.008789
-0.009214
-0.009812
-0.010358
-0.010707
-0.010628
-0.009996
-0.008703
-0.006671
-0.003920
-0.000489
0.003533
0.008007
0.012770
0.017651
0.022521
0.027206
0.031673
0.035899
0.039866
0.043710
0.047524
0.051518
0.055854
0.060783
0.066466
0.073082
0.080728
0.089437
0.099240
0.110007
0.121638
0.133947
0.146706
0.159717
0.172730
0.185573
0.198109
0.210231
0.221917
0.233182
0.244123
0.254843
0.265498
0.276238
0.287203
0.298476
0.310112
0.322082
0.334280
0.346538
0.358630
0.370276
0.381156
0.390965
0.399390
0.406159
0.411123
0.414114
0.415141
0.414256
0.411597
0.407400
0.401930
0.395508
0.388456
0.381049
0.373579
0.366221
0.359123
0.352342
0.345844
0.339584
0.333378
0.327098
0.320556
0.313574
0.306032
0.297781
0.288819
0.279113
0.268710
0.257733
0.246271
0.234513
0.222600
0.210661
0.198818
0.187170
0.175754
0.164597
0.153669
0.142935
0.132332
0.121813
0.111341
0.100884
0.090479
0.080178
0.070096
0.060332
0.051092
0.042507
0.034772
0.028051
0.022458
0.018082
0.014932
0.012983
0.012121
0.012166
0.012940
0.014164
0.015593
0.016951
0.018001
0.018537
0.018398
0.017498
0.015805
0.013338
0.010219
0.006549
0.002479
-0.001800
-0.006175
-0.010480
-0.014651
-0.018616
-0.022365
-0.025955
-0.029379
-0.032785
-0.036159
-0.039560
-0.042953
-0.046199
-0.049119
-0.051339
-0.052444
-0.051901
-0.049023
-0.043079
-0.033255
-0.018736
0.001309
0.027720
0.061222
0.102466
0.151998
0.210273
0.277548
0.353963
0.439517
0.534080
0.637339
0.748922
0.868316
0.994843
1.127789
1.266280
1.409299
1.555703
1.704180
1.853291
2.001391
2.146628
2.287073
2.420566
2.544889
2.657679
2.756655
2.839541
2.904203
2.948735
2.971537
2.971391
2.947503
2.899613
2.827994
2.733446
2.617363
2.481631
2.328628
2.161087
1.982119
1.794964
1.603014
1.409647
1.218109
1.031491
0.852481
0.683518
0.526532
0.383034
0.254078
0.140217
0.041619
-0.041987
-0.111215
-0.166936
-0.210295
-0.242553
-0.265072
-0.279275
-0.286555
-0.288229
-0.285577
-0.279707
-0.271606
-0.262140
-0.251976
-0.241683
-0.231656
-0.222173
-0.213408
-0.205397
-0.198134
-0.191530
-0.185431
-0.179696
-0.174118
-0.168527
-0.162781
-0.156741
-0.150357
-0.143575
-0.136457
-0.129064
-0.121529
-0.114033
-0.106735
-0.099858
-0.093582
-0.088070
-0.083460
-0.079803
-0.077110
-0.075344
-0.074365
-0.074027
-0.074082
-0.074314
-0.074473
-0.074287
-0.073589
-0.072182
-0.069998
-0.067008
-0.063250
-0.058864
-0.053992
-0.048868
-0.043708
-0.038771
-0.034267
-0.030368
-0.027215
-0.024841
-0.023222
-0.022288
-0.021880
-0.021794
-0.021813
-0.021693
-0.021219
-0.020202
-0.018518
-0.016107
-0.012970
-0.009176
-0.004840
-0.000174
0.004657
0.009407
0.013907
0.017987
0.021546
0.024533
0.026963
0.028923
0.030523
0.031942
0.033407
0.035087
0.037191
0.039846
0.043157
0.047164
0.051838
0.057115
0.062856
0.068890
0.075030
0.081095
0.086902
0.092322
0.097254
0.101681
0.105621
0.109136
0.112392
0.115547
0.118810
0.122353
0.126365
0.130989
0.136291
0.142339
0.149084
0.156442
0.164292
0.172397
0.180590
0.188630
0.196330
0.203534
0.210110
0.216012
0.221250
0.225884
0.230082
0.233986
0.237851
0.241856
0.246228
0.251141
0.256730
0.263078
0.270187
0.278012
0.286427
0.295269
0.304340
0.313437
0.322362
0.330927
0.339025
0.346550
0.353520
0.359974
0.366048
0.371916
0.377778
0.383843
0.390351
0.397493
0.405427
0.414255
0.424020
0.434693
0.446159
0.458270
0.470846
0.483663
0.496531
0.509219
0.521611
0.533550
0.545003
0.555979
0.566518
0.576788
0.586851
0.596940
0.607173
0.617691
0.628589
0.639923
0.651654
0.663742
0.676041
0.688399
0.700666
0.712640
0.724170
0.735139
0.745466
0.755134
0.764206
0.772794
0.781058
0.789208
0.797457
0.806030
0.815098
0.824833
0.835274
0.846505
0.858409
0.870879
0.883705
0.896632
0.909404
0.921726
0.933311
0.943946
0.953401
0.961600
0.968473
0.974041
0.978449
0.981790
0.984312
0.986199
0.987684
0.988958
0.990176
0.991441
0.992785
0.994161
0.995499
0.996613
0.997322
0.997394
0.996600
0.994751
0.991635
0.987173
0.981251
0.973903
0.965172
0.955155
0.944026
0.931936
0.919080
0.905603
0.891673
0.877354
0.862715
0.847738
0.832352
0.816501
0.799979
0.782700
0.764464
0.745195
0.724784
0.703175
0.680428
0.656565
0.631768
0.606174
0.580030
0.553567
0.527002
0.500572
0.474467
0.448827
0.423746
0.399284
0.375388
0.352033
0.329101
0.306495
0.284111
0.261844
0.239653
0.217475
0.195356
0.173362
0.151577
0.130164
0.109267
0.089031
0.069602
0.051063
0.033502
0.016905
0.001214
-0.013644
-0.027874
-0.041608
-0.055051
-0.068386
-0.081734
-0.095249
-0.108944
-0.122845
-0.136841
-0.150808
-0.164552
-0.177839
-0.190423
-0.202091
-0.212625
-0.221866
-0.229717
-0.236143
-0.241183
-0.244975
-0.247681
-0.249527
-0.250766
-0.251669
-0.252440
-0.253346
-0.254507
-0.256046
-0.257984
-0.260315
-0.262922
-0.265678
-0.268439
-0.271006
-0.273223
-0.274947
-0.276059
-0.276553
-0.276408
-0.275719
-0.274590
-0.273179
-0.271694
-0.270271
-0.269140
-0.268402
-0.268161
-0.268447
-0.269225
-0.270417
-0.271853
-0.273372
-0.274756
-0.275778
-0.276259
-0.276016
-0.274935
-0.272988
-0.270159
-0.266565
-0.262312
-0.257637
-0.252738
-0.247856
-0.243259
-0.239106
-0.235580
-0.232783
-0.230730
-0.229405
-0.228682
-0.228446
-0.228496
-0.228624
-0.228623
-0.228343
-0.227610
-0.226365
-0.224584
-0.222278
-0.219594
-0.216622
-0.213564
-0.210609
-0.207930
-0.205687
-0.204002
-0.202938
-0.202482
-0.202585
-0.203142
-0.203975
-0.204925
-0.205787
-0.206393
-0.206593
-0.206310
-0.205502
-0.204178
-0.202444
-0.200421
-0.198269
-0.196175
-0.194353
-0.192953
-0.192121
-0.191928
-0.192379
-0.193430
-0.194941
-0.196761
-0.198672
-0.200443
-0.201867
-0.202738
-0.202883
-0.202250
-0.200732
-0.198452
-0.195464
-0.191965
-0.188142
-0.184255
-0.180542
-0.177224
-0.174487
-0.172470
-0.171236
-0.170781
-0.171037
-0.171861
-0.173071
-0.174463
-0.175772
-0.176799
-0.177347
-0.177264
-0.176481
-0.174974
-0.172806
-0.170071
-0.166959
-0.163654
-0.160376
-0.157363
-0.154791
-0.152856
-0.151609
-0.151139
-0.151384
-0.152264
-0.153652
-0.155385
-0.157247
-0.159068
-0.160672
-0.161896
-0.162677
-0.162961
-0.162764
-0.162163
-0.161279
-0.160256
-0.159272
-0.158477
-0.158038
-0.158061
-0.158602
-0.159687
-0.161258
-0.163244
-0.165499
-0.167850
-0.170141
-0.172174
-0.173837
-0.174964
-0.175548
-0.175546
-0.175037
-0.174124
-0.172933
-0.171685
-0.170513
-0.169651
-0.169223
-0.169372
-0.170111
-0.171469
-0.173354
-0.175653
-0.178192
-0.180778
-0.183201
-0.185255
-0.186770
-0.187629
-0.187748
-0.187162
-0.185909
-0.184102
-0.181921
-0.179506
-0.177109
-0.174876
-0.172998
-0.171590
-0.170677
-0.170289
-0.170334
-0.170706
-0.171259
-0.171813
-0.172184
-0.172220
-0.171748
-0.170707
-0.169057
-0.166819
-0.164109
-0.161011
-0.157791
-0.154578
-0.151621
-0.149110
-0.147194
-0.146016
-0.145596
-0.145937
-0.146968
-0.148526
-0.150465
-0.152532
-0.154519
-0.156178
-0.157327
-0.157820
-0.157574
-0.156542
-0.154796
-0.152413
-0.149543
-0.146400
-0.143157
-0.140046
-0.137250
-0.134903
-0.133116
-0.131904
-0.131269
-0.131103
-0.131312
-0.131721
-0.132163
-0.132460
-0.132461
-0.132034
-0.131136
-0.129736
-0.127904
-0.125718
-0.123317
-0.120863
-0.118545
-0.116514
-0.114969
-0.113958
-0.113593
-0.113834
-0.114637
-0.115892
-0.117433
-0.119085
-0.120648
-0.121935
-0.122764
-0.123023
-0.122638
-0.121621
-0.120038
-0.117997
-0.115690
-0.113272
-0.110995
-0.109020
-0.107558
-0.106713
-0.106538
-0.107066
-0.108170
-0.109771
-0.111654
-0.113604
-0.115439
-0.116885
-0.117807
-0.118042
-0.117539
-0.116296
-0.114369
-0.111910
-0.109071
-0.106063
-0.103116
-0.100421
-0.098171
-0.096494
-0.095472
-0.095111
-0.095350
-0.096082
-0.097159
-0.098375
-0.099552
-0.100502
-0.101039
-0.101068
-0.100479
-0.099289
-0.097540
-0.095312
-0.092756
-0.090045
-0.087328
-0.084789
-0.082549
-0.080714
-0.079364
-0.078442
-0.077958
-0.077750
-0.077704
-0.077667
-0.077425
-0.076854
-0.075801
-0.074188
-0.071980
-0.069206
-0.065940
-0.062308
-0.058497
-0.054685
-0.051056
-0.047831
-0.045130
-0.043069
-0.041720
-0.041031
-0.040968
-0.041362
-0.042082
-0.042904
-0.043637
-0.044083
-0.044090
-0.043506
-0.042311
-0.040473
-0.038053
-0.035199
-0.032037
-0.028783
-0.025614
-0.022756
-0.020347
-0.018523
-0.017341
-0.016810
-0.016873
-0.017414
-0.018273
-0.019257
-0.020186
-0.020851
-0.021106
-0.020819
-0.019950
-0.018519
-0.016565
-0.014287
-0.011825
-0.009401
-0.007271
-0.005607
-0.004614
-0.004406
-0.005026
-0.006482
-0.008646
-0.011386
-0.014472
-0.017682
-0.020739
-0.023414
-0.025473
-0.026772
-0.027213
-0.026781
-0.025525
-0.023576
-0.021084
-0.018242
-0.015280
-0.012386
-0.009729
-0.007423
-0.005502
-0.003949
-0.002651
-0.001457
-0.000179
0.001430
0.003621
0.006605
0.010623
0.015762
0.022139
0.029749
0.038497
0.048284
0.058874
0.070065
0.081597
0.093226
0.104729
0.115922
0.126714
0.137035
0.146927
0.156464
0.165781
0.175064
0.184504
0.194295
0.204607
0.215579
0.227260
0.239671
0.252754
0.266355
0.280303
0.294351
0.308254
0.321723
0.334514
0.346413
0.357205
0.366803
0.375123
0.382172
0.387980
0.392654
0.396310
0.399066
0.401037
0.402350
0.403030
0.403141
0.402651
0.401490
0.399620
0.396877
0.393169
0.388381
0.382433
0.375287
0.366952
0.357481
0.347002
0.335662
0.323677
0.311264
0.298658
0.286080
0.273711
0.261708
0.250144
0.239028
0.228347
0.217965
0.207778
0.197582
0.187202
0.176469
0.165236
0.153421
0.141008
0.128044
0.114647
0.101005
0.087349
0.073931
0.061046
0.048929
0.037809
0.027858
0.019170
0.011767
0.005575
0.000520
-0.003644
-0.007112
-0.010113
-0.012913
-0.015691
-0.018624
-0.021797
-0.025274
-0.029007
-0.032921
-0.036909
-0.040756
-0.044345
-0.047492
-0.050076
-0.052044
-0.053382
-0.054147
-0.054446
-0.054478
-0.054463
-0.054651
-0.055265
-0.056564
-0.058702
-0.061772
-0.065797
-0.070673
-0.076240
-0.082191
-0.088127
-0.093620
-0.098102
-0.101036
-0.101790
-0.099816
-0.094517
-0.085335
-0.071764
-0.053306
-0.029549
-0.000047
0.035586
0.077684
0.126613
0.182711
0.246299
0.317650
0.397042
0.484649
0.580583
0.684840
0.797270
0.917555
1.045162
1.179385
1.319233
1.463481
1.610669
1.759113
1.906923
2.051979
2.192055
2.324847
2.448020
2.559238
2.656302
2.737135
2.799909
2.843010
2.865183
2.865552
2.843581
2.799252
2.732859
2.645250
2.537572
2.411464
2.268921
2.112210
1.943912
1.766839
1.583862
1.398009
1.212254
1.029508
0.852529
0.683786
0.525532
0.379577
0.247352
0.129890
0.027694
-0.059105
-0.130865
-0.188284
-0.232464
-0.264682
-0.286503
-0.299570
-0.305535
-0.306085
-0.302719
-0.296816
-0.289507
-0.281701
-0.274045
-0.266942
-0.260570
-0.254895
-0.249760
-0.244863
-0.239882
-0.234483
-0.228386
-0.221361
-0.213273
-0.204133
-0.194024
-0.183198
-0.171923
-0.160582
-0.149546
-0.139191
-0.129871
-0.121813
-0.115250
-0.110220
-0.106717
-0.104596
-0.103651
-0.103594
-0.104090
-0.104833
-0.105461
-0.105721
-0.105387
-0.104307
-0.102444
-0.099788
-0.096457
-0.092584
-0.088381
-0.084024
-0.079744
-0.075695
-0.072018
-0.068798
-0.066023
-0.063688
-0.061667
-0.059828
-0.058011
-0.056037
-0.053764
-0.051042
-0.047826
-0.044065
-0.039789
-0.035082
-0.030072
-0.024928
-0.019838
-0.014966
-0.010460
-0.006463
-0.003007
-0.000131
0.002239
0.004212
0.005947
0.007649
0.009537
0.011812
0.014672
0.018244
0.022605
0.027780
0.033712
0.040275
0.047303
0.054578
0.061853
0.068916
0.075554
0.081576
0.086938
0.091540
0.095460
0.098775
0.101632
0.104257
0.106810
0.109538
0.112608
0.116169
0.120296
0.125019
0.130303
0.136025
0.142049
0.148173
0.154215
0.159994
0.165328
0.170126
0.174324
0.177941
0.181007
0.183695
0.186164
0.188620
0.191303
0.194384
0.198080
0.202488
0.207736
0.213790
0.220634
0.228119
0.236094
0.244359
0.252722
0.260961
0.268913
0.276455
0.283495
0.290027
0.296101
0.301821
0.307371
0.312908
0.318669
0.324855
0.331617
0.339115
0.347388
0.356459
0.366276
0.376702
0.387613
0.398754
0.409967
0.420990
0.431665
0.441840
0.451410
0.460376
0.468767
0.476676
0.484307
0.491790
0.499382
0.507289
0.515691
0.524779
0.534616
0.545283
0.556748
0.568909
0.581640
0.594772
0.608071
0.621377
0.634450
0.647165
0.659387
0.671066
0.682212
0.692875
0.703183
0.713269
0.723319
0.733501
0.743934
0.754775
0.766066
0.777825
0.789975
0.802408
0.814922
0.827334
0.839413
0.850926
0.861705
0.871577
0.880450
0.888294
0.895116
0.901077
0.906246
0.910873
0.915139
0.919212
0.923293
0.927493
0.931865
0.936436
0.941088
0.945753
0.950210
0.954265
0.957723
0.960327
0.961955
0.962410
0.961657
0.959679
0.956498
0.952268
0.947123
0.941264
0.934892
0.928184
0.921318
0.914393
0.907491
0.900581
0.893585
0.886385
0.878782
0.870550
0.861463
0.851294
0.839865
0.827004
0.812641
0.796754
0.779409
0.760723
0.740881
0.720116
0.698683
0.676832
0.654791
0.632777
0.610949
0.589369
0.568106
0.547105
0.526296
0.505534
0.484686
0.463592
0.442098
0.420102
0.397512
0.374338
0.350598
0.326399
0.301878
0.277214
0.252603
0.228243
0.204333
0.181037
0.158482
0.136736
0.115852
0.095763
0.076425
0.057727
0.039539
0.021745
0.004219
-0.013110
-0.030293
-0.047323
-0.064139
-0.080660
-0.096732
-0.112196
-0.126878
-0.140631
-0.153280
-0.164739
-0.174952
-0.183916
-0.191702
-0.198439
-0.204290
-0.209430
-0.214096
-0.218449
-0.222664
-0.226883
-0.231158
-0.235522
-0.239933
-0.244272
-0.248429
-0.252221
-0.255504
-0.258147
-0.260007
-0.261074
-0.261322
-0.260846
-0.259770
-0.258283
-0.256620
-0.255009
-0.253710
-0.252933
-0.252857
-0.253592
-0.255188
-0.257590
-0.260709
-0.264337
-0.268264
-0.272206
-0.275889
-0.279066
-0.281486
-0.282973
-0.283431
-0.282796
-0.281128
-0.278516
-0.275138
-0.271217
-0.266953
-0.262617
-0.258399
-0.254515
-0.251083
-0.248186
-0.245847
-0.244002
-0.242586
-0.241457
-0.240470
-0.239485
-0.238364
-0.237012
-0.235362
-0.233411
-0.231172
-0.228750
-0.226232
-0.223785
-0.221521
-0.219586
-0.218099
-0.217106
-0.216633
-0.216677
-0.217108
-0.217819
-0.218638
-0.219380
-0.219866
-0.219920
-0.219427
-0.218301
-0.216497
-0.214076
-0.211121
-0.207813
-0.204335
-0.200921
-0.197804
-0.195211
-0.193326
-0.192315
-0.192232
-0.193108
-0.194865
-0.197359
-0.200433
-0.203826
-0.207339
-0.210705
-0.213721
-0.216175
-0.217960
-0.219025
-0.219374
-0.219101
-0.218332
-0.217238
-0.216021
-0.214850
-0.213913
-0.213344
-0.213222
-0.213553
-0.214310
-0.215358
-0.216566
-0.217752
-0.218716
-0.219293
-0.219313
-0.218699
-0.217372
-0.215402
-0.212874
-0.209926
-0.206790
-0.203695
-0.200870
-0.198563
-0.196978
-0.196233
-0.196454
-0.197609
-0.199660
-0.202480
-0.205863
-0.209633
-0.213489
-0.217253
-0.220680
-0.223611
-0.225935
-0.227608
-0.228610
-0.229052
-0.229032
-0.228734
-0.228312
-0.227944
-0.227789
-0.227947
-0.228468
-0.229358
-0.230539
-0.231925
-0.233317
-0.234573
-0.235464
-0.235827
-0.235516
-0.234409
-0.232482
-0.229754
-0.226310
-0.222333
-0.217995
-0.213562
-0.209261
-0.205339
-0.202031
-0.199489
-0.197833
-0.197113
-0.197285
-0.198271
-0.199903
-0.202020
-0.204377
-0.206795
-0.209053
-0.210977
-0.212462
-0.213428
-0.213892
-0.213893
-0.213543
-0.212971
-0.212337
-0.211803
-0.211492
-0.211553
-0.211988
-0.212857
-0.214071
-0.215539
-0.217110
-0.218604
-0.219858
-0.220677
-0.220890
-0.220412
-0.219180
-0.217189
-0.214558
-0.211379
-0.207879
-0.204244
-0.200702
-0.197481
-0.194756
-0.192667
-0.191312
-0.190669
-0.190704
-0.191268
-0.192215
-0.193330
-0.194402
-0.195236
-0.195603
-0.195456
-0.194661
-0.193254
-0.191330
-0.188990
-0.186423
-0.183849
-0.181474
-0.179525
-0.178185
-0.177574
-0.177775
-0.178760
-0.180471
-0.182774
-0.185445
-0.188307
-0.191072
-0.193522
-0.195439
-0.196655
-0.197062
-0.196612
-0.195333
-0.193336
-0.190734
-0.187749
-0.184563
-0.181425
-0.178534
-0.176039
-0.174083
-0.172695
-0.171893
-0.171606
-0.171740
-0.172139
-0.172620
-0.173040
-0.173205
-0.173009
-0.172375
-0.171266
-0.169690
-0.167764
-0.165569
-0.163272
-0.161072
-0.159106
-0.157565
-0.156547
-0.156134
-0.156360
-0.157166
-0.158514
-0.160228
-0.162173
-0.164158
-0.165974
-0.167490
-0.168526
-0.169013
-0.168901
-0.168180
-0.166933
-0.165242
-0.163259
-0.161173
-0.159106
-0.157233
-0.155657
-0.154469
-0.153684
-0.153274
-0.153161
-0.153210
-0.153260
-0.153155
-0.152718
-0.151786
-0.150282
-0.148128
-0.145320
-0.141938
-0.138075
-0.133906
-0.129626
-0.125431
-0.121515
-0.118027
-0.115109
-0.112809
-0.111133
-0.110027
-0.109351
-0.108937
-0.108600
-0.108110
-0.107294
-0.105989
-0.104092
-0.101567
-0.098439
-0.094827
-0.090876
-0.086821
-0.082888
-0.079325
-0.076376
-0.074216
-0.073012
-0.072788
-0.073544
-0.075167
-0.077480
-0.080232
-0.083148
-0.085905
-0.088202
-0.089779
-0.090376
-0.089876
-0.088170
-0.085310
-0.081382
-0.076543
-0.071055
-0.065163
-0.059174
-0.053386
-0.048039
-0.043356
-0.039492
-0.036525
-0.034461
-0.033234
-0.032723
-0.032755
-0.033119
-0.033586
-0.033990
-0.034096
-0.033803
-0.032966
-0.031528
-0.029465
-0.026780
-0.023518
-0.019726
-0.015488
-0.010833
-0.005778
-0.000361
0.005484
0.011782
0.018595
0.026015
0.034110
0.042958
0.052598
0.063048
0.074267
0.086178
0.098689
0.111644
0.124883
0.138218
0.151448
0.164418
0.176984
0.189025
0.200516
0.211441
0.221855
0.231844
0.241505
0.250986
0.260408
0.269868
0.279429
0.289091
0.298774
0.308396
0.317733
0.326591
0.334673
0.341718
0.347427
0.351564
0.353939
0.354433
0.353023
0.349764
0.344782
0.338289
0.330559
0.321870
0.312562
0.302916
0.293175
0.283556
0.274135
0.264985
0.256068
0.247251
0.238413
0.229311
0.219747
0.209502
0.198421
0.186387
0.173367
0.159395
0.144575
0.129089
0.113174
0.097115
0.081200
0.065738
0.050965
0.037125
0.024346
0.012722
0.002257
-0.007134
-0.015525
-0.023153
-0.030153
-0.036758
-0.043144
-0.049426
-0.055725
-0.062050
-0.068414
-0.074707
-0.080840
-0.086606
-0.091867
-0.096419
-0.100148
-0.102927
-0.104704
-0.105498
-0.105350
-0.104397
-0.102826
-0.100837
-0.098690
-0.096612
-0.094836
-0.093553
-0.092916
-0.093040
-0.093965
-0.095694
-0.098181
-0.101311
-0.104963
-0.108999
-0.113236
-0.117575
-0.121829
-0.125925
-0.129707
-0.133079
-0.135935
-0.138099
-0.139432
-0.139682
-0.138553
-0.135651
-0.130522
-0.122593
-0.111257
-0.095750
-0.075388
-0.049349
-0.016883
0.022769
0.070242
0.126073
0.190680
0.264346
0.347139
0.439003
0.539626
0.648619
0.765317
0.888972
1.018691
1.153367
1.291899
1.432963
1.575205
1.717064
1.857016
1.993320
2.124197
2.247744
2.362030
2.465083
2.554861
2.629469
2.687027
2.725893
2.744622
2.742062
2.717452
2.670449
2.601165
2.510298
2.398959
2.268862
2.122117
1.961286
1.789301
1.609295
1.424594
1.238549
1.054413
0.875296
0.703980
0.542901
0.394067
0.258989
0.138698
0.033716
-0.055912
-0.130554
-0.190968
-0.238160
-0.273427
-0.298176
-0.313855
-0.322014
-0.324025
-0.321272
-0.314917
-0.306013
-0.295465
-0.283964
-0.272116
-0.260335
-0.248914
-0.238098
-0.227985
-0.218646
-0.210101
-0.202312
-0.195212
-0.188732
-0.182743
-0.177157
-0.171835
-0.166649
-0.161499
-0.156232
-0.150768
-0.145034
-0.138954
-0.132584
-0.125897
-0.119019
-0.112029
-0.105065
-0.098322
-0.091922
-0.086083
-0.080920
-0.076559
-0.073063
-0.070456
-0.068689
-0.067660
-0.067249
-0.067244
-0.067462
-0.067653
-0.067635
-0.067214
-0.066261
-0.064712
-0.062516
-0.059764
-0.056505
-0.052925
-0.049175
-0.045456
-0.041962
-0.038816
-0.036177
-0.034066
-0.032499
-0.031433
-0.030732
-0.030240
-0.029790
-0.029155
-0.028173
-0.026685
-0.024572
-0.021793
-0.018348
-0.014317
-0.009827
-0.005011
-0.000137
0.004674
0.009157
0.013190
0.016641
0.019461
0.021635
0.023250
0.024409
0.025317
0.026153
0.027154
0.028535
0.030466
0.033113
0.036541
0.040780
0.045802
0.051514
0.057780
0.064416
0.071236
0.078060
0.084713
0.091063
0.097045
0.102621
0.107843
0.112785
0.117565
0.122349
0.127294
0.132562
0.138297
0.144575
0.151482
0.158953
0.166973
0.175395
0.184068
0.192814
0.201426
0.209730
0.217553
0.224775
0.231340
0.237223
0.242479
0.247221
0.251591
0.255786
0.259998
0.264444
0.269307
0.274711
0.280784
0.287549
0.295007
0.303058
0.311609
0.320478
0.329516
0.338530
0.347361
0.355897
0.364046
0.371798
0.379176
0.386275
0.393240
0.400240
0.407471
0.415111
0.423334
0.432260
0.441941
0.452432
0.463657
0.475504
0.487858
0.500477
0.513190
0.525764
0.538044
0.549888
0.561206
0.571995
0.582278
0.592167
0.601813
0.611392
0.621105
0.631146
0.641662
0.652785
0.664565
0.677017
0.690073
0.703599
0.717455
0.731398
0.745230
0.758728
0.771695
0.784011
0.795543
0.806291
0.816251
0.825522
0.834261
0.842584
0.850727
0.858845
0.867098
0.875599
0.884413
0.893541
0.902928
0.912461
0.921965
0.931261
0.940113
0.948329
0.955705
0.962113
0.967445
0.971699
0.974873
0.977092
0.978441
0.979138
0.979329
0.979219
0.978963
0.978666
0.978435
0.978245
0.978051
0.977765
0.977182
0.976153
0.974444
0.971842
0.968169
0.963252
0.956961
0.949265
0.940150
0.929681
0.917975
0.905192
0.891487
0.877058
0.862064
0.846639
0.830910
0.814906
0.798653
0.782091
0.765105
0.747590
0.729388
0.710327
0.690332
0.669255
0.647099
0.623866
0.599640
0.574571
0.548839
0.522691
0.496385
0.470161
0.444268
0.418903
0.394219
0.370307
0.347162
0.324755
0.302981
0.281689
0.260711
0.239867
0.219037
0.198045
0.176858
0.155460
0.133895
0.112282
0.090818
0.069670
0.049089
0.029283
0.010452
-0.007226
-0.023635
-0.038744
-0.052521
-0.065090
-0.076547
-0.087082
-0.096903
-0.106194
-0.115143
-0.123899
-0.132579
-0.141239
-0.149858
-0.158418
-0.166763
-0.174784
-0.182316
-0.189194
-0.195291
-0.200470
-0.204694
-0.207941
-0.210227
-0.211703
-0.212472
-0.212725
-0.212661
-0.212442
-0.212270
-0.212264
-0.212527
-0.213125
-0.214009
-0.215149
-0.216446
-0.217731
-0.218905
-0.219788
-0.220269
-0.220241
-0.219651
-0.218491
-0.216783
-0.214631
-0.212151
-0.209478
-0.206794
-0.204236
-0.201940
-0.200014
-0.198516
-0.197453
-0.196801
-0.196486
-0.196381
-0.196348
-0.196233
-0.195906
-0.195220
-0.194115
-0.192539
-0.190496
-0.188034
-0.185258
-0.182310
-0.179327
-0.176513
-0.173994
-0.171931
-0.170382
-0.169417
-0.168977
-0.169016
-0.169398
-0.169951
-0.170492
-0.170818
-0.170780
-0.170194
-0.168989
-0.167131
-0.164642
-0.161636
-0.158271
-0.154742
-0.151322
-0.148224
-0.145695
-0.143926
-0.143046
-0.143120
-0.144154
-0.146049
-0.148653
-0.151740
-0.155087
-0.158403
-0.161445
-0.163978
-0.165803
-0.166839
-0.166995
-0.166335
-0.164960
-0.163024
-0.160736
-0.158345
-0.156057
-0.154110
-0.152667
-0.151840
-0.151716
-0.152220
-0.153305
-0.154816
-0.156583
-0.158397
-0.160034
-0.161296
-0.162014
-0.162051
-0.161354
-0.159921
-0.157811
-0.155144
-0.152055
-0.148716
-0.145312
-0.142025
-0.138999
-0.136339
-0.134126
-0.132339
-0.130980
-0.129971
-0.129185
-0.128549
-0.127913
-0.127188
-0.126312
-0.125215
-0.123927
-0.122498
-0.120978
-0.119516
-0.118200
-0.117205
-0.116605
-0.116534
-0.117038
-0.118122
-0.119752
-0.121835
-0.124244
-0.126834
-0.129403
-0.131761
-0.133790
-0.135281
-0.136193
-0.136454
-0.136097
-0.135192
-0.133866
-0.132300
-0.130695
-0.129256
-0.128199
-0.127695
-0.127854
-0.128772
-0.130420
-0.132743
-0.135615
-0.138843
-0.142207
-0.145486
-0.148416
-0.150804
-0.152455
-0.153283
-0.153225
-0.152302
-0.150613
-0.148297
-0.145562
-0.142613
-0.139664
-0.136930
-0.134580
-0.132749
-0.131503
-0.130847
-0.130755
-0.131084
-0.131754
-0.132561
-0.133394
-0.134076
-0.134518
-0.134645
-0.134428
-0.133903
-0.133143
-0.132264
-0.131403
-0.130703
-0.130311
-0.130335
-0.130860
-0.131903
-0.133454
-0.135396
-0.137654
-0.139999
-0.142301
-0.144337
-0.145939
-0.146965
-0.147306
-0.146915
-0.145819
-0.144094
-0.141861
-0.139291
-0.136594
-0.133943
-0.131572
-0.129646
-0.128270
-0.127531
-0.127419
-0.127893
-0.128846
-0.130122
-0.131551
-0.132923
-0.134081
-0.134850
-0.135121
-0.134840
-0.133964
-0.132580
-0.130778
-0.128703
-0.126544
-0.124455
-0.122676
-0.121295
-0.120484
-0.120296
-0.120720
-0.121737
-0.123205
-0.125035
-0.126986
-0.128922
-0.130629
-0.131919
-0.132714
-0.132878
-0.132410
-0.131372
-0.129828
-0.127926
-0.125854
-0.123766
-0.121906
-0.120391
-0.119356
-0.118900
-0.118993
-0.119598
-0.120595
-0.121810
-0.123079
-0.124155
-0.124849
-0.124954
-0.124345
-0.122950
-0.120752
-0.117832
-0.114323
-0.110409
-0.106331
-0.102346
-0.098691
-0.095605
-0.093252
-0.091774
-0.091200
-0.091489
-0.092564
-0.094232
-0.096287
-0.098471
-0.100510
-0.102157
-0.103166
-0.103355
-0.102600
-0.100844
-0.098051
-0.094324
-0.089707
-0.084365
-0.078422
-0.072037
-0.065320
-0.058394
-0.051314
-0.044075
-0.036728
-0.029152
-0.021320
-0.013126
-0.004500
0.004624
0.014285
0.024494
0.035210
0.046345
0.057806
0.069452
0.081152
0.092761
0.104143
0.115247
0.125990
0.136408
0.146522
0.156436
0.166277
0.176164
0.186272
0.196710
0.207586
0.218970
0.230840
0.243121
0.255688
0.268312
0.280757
0.292725
0.303908
0.314031
0.322786
0.329986
0.335442
0.339078
0.340908
0.340995
0.339511
0.336672
0.332742
0.328010
0.322761
0.317253
0.311736
0.306312
0.301092
0.296058
0.291124
0.286146
0.280912
0.275212
0.268776
0.261406
0.252896
0.243113
0.232048
0.219664
0.206122
0.191585
0.176289
0.160549
0.144649
0.128929
0.113642
0.099013
0.085232
0.072379
0.060501
0.049534
0.039390
0.029927
0.020967
0.012339
0.003916
-0.004471
-0.012836
-0.021239
-0.029621
-0.037909
-0.045972
-0.053662
-0.060794
-0.067230
-0.072834
-0.077501
-0.081220
-0.083989
-0.085885
-0.087029
-0.087594
-0.087748
-0.087696
-0.087638
-0.087731
-0.088079
-0.088820
-0.089937
-0.091465
-0.093345
-0.095480
-0.097807
-0.100221
-0.102622
-0.104989
-0.107251
-0.109481
-0.111678
-0.113945
-0.116376
-0.119023
-0.122012
-0.125351
-0.129028
-0.132924
-0.136852
-0.140555
-0.143584
-0.145501
-0.145716
-0.143613
-0.138469
-0.129569
-0.116196
-0.097658
-0.073265
-0.042403
-0.004569
0.040704
0.093811
0.155001
0.224453
0.302255
0.388419
0.482818
0.585256
0.695458
0.812961
0.937253
1.067644
1.203327
1.343250
1.486246
1.630885
1.775611
1.918567
2.057795
2.191188
2.316446
2.431261
2.533290
2.620291
2.690151
2.740930
2.771077
2.779297
2.764821
2.727321
2.666936
2.584412
2.480909
2.358153
2.218262
2.063712
1.897299
1.722028
1.541008
1.357349
1.174120
0.994221
0.820284
0.654688
0.499416
0.356108
0.225962
0.109790
0.007995
-0.079390
-0.152676
-0.212480
-0.259652
-0.295273
-0.320532
-0.336758
-0.345282
-0.347457
-0.344583
-0.337870
-0.328434
-0.317215
-0.305048
-0.292578
-0.280286
-0.268520
-0.257457
-0.247145
-0.237541
-0.228502
-0.219848
-0.211382
-0.202882
-0.194182
-0.185165
-0.175727
-0.165903
-0.155730
-0.145395
-0.135064
-0.124983
-0.115380
-0.106531
-0.098640
-0.091891
-0.086395
-0.082186
-0.079215
-0.077351
-0.076410
-0.076116
-0.076196
-0.076340
-0.076229
-0.075597
-0.074224
-0.071964
-0.068738
-0.064561
-0.059523
-0.053772
-0.047536
-0.041058
-0.034610
-0.028470
-0.022835
-0.017910
-0.013794
-0.010499
-0.008036
-0.006266
-0.005044
-0.004171
-0.003388
-0.002495
-0.001223
0.000570
0.003011
0.006182
0.010034
0.014519
0.019455
0.024695
0.029996
0.035144
0.039909
0.044132
0.047694
0.050515
0.052628
0.054076
0.055026
0.055647
0.056163
0.056811
0.057797
0.059311
0.061478
0.064381
0.068027
0.072367
0.077279
0.082632
0.088189
0.093790
0.099238
0.104379
0.109126
0.113391
0.117219
0.120641
0.123778
0.126814
0.129896
0.133257
0.137031
0.141363
0.146355
0.152019
0.158358
0.165281
0.172649
0.180310
0.188010
0.195598
0.202840
0.209625
0.215828
0.221379
0.226315
0.230670
0.234572
0.238170
0.241665
0.245217
0.249021
0.253215
0.257898
0.263139
0.268942
0.275256
0.281992
0.289030
0.296214
0.303398
0.310474
0.317327
0.323890
0.330145
0.336106
0.341862
0.347516
0.353194
0.359086
0.365287
0.371952
0.379158
0.386957
0.395364
0.404323
0.413755
0.423535
0.433476
0.443462
0.453283
0.462844
0.472017
0.480729
0.488993
0.496797
0.504278
0.511525
0.518723
0.526066
0.533675
0.541758
0.550405
0.559683
0.569654
0.580240
0.591379
0.602917
0.614671
0.626458
0.638083
0.649352
0.660124
0.670280
0.679776
0.688622
0.696865
0.704643
0.712088
0.719404
0.726719
0.734225
0.742006
0.750153
0.758691
0.767562
0.776678
0.785889
0.795009
0.803829
0.812173
0.819853
0.826729
0.832725
0.837765
0.841908
0.845215
0.847822
0.849905
0.851624
0.853164
0.854679
0.856252
0.857998
0.859872
0.861852
0.863818
0.865579
0.866964
0.867725
0.867658
0.866556
0.864260
0.860653
0.855646
0.849280
0.841572
0.832664
0.822681
0.811785
0.800155
0.787955
0.775313
0.762322
0.749044
0.735462
0.721566
0.707222
0.692361
0.676866
0.660614
0.643536
0.625561
0.606682
0.586944
0.566422
0.545252
0.523574
0.501612
0.479517
0.457470
0.435634
0.414113
0.392958
0.372212
0.351824
0.331689
0.311724
0.291752
0.271667
0.251328
0.230622
0.209520
0.187953
0.166042
0.143810
0.121477
0.099226
0.077288
0.055912
0.035328
0.015738
-0.002681
-0.019824
-0.035634
-0.050115
-0.063400
-0.075575
-0.086866
-0.097458
-0.107588
-0.117459
-0.127216
-0.137043
-0.146976
-0.157019
-0.167157
-0.177213
-0.187106
-0.196627
-0.205582
-0.213849
-0.221230
-0.227664
-0.233095
-0.237538
-0.241080
-0.243842
-0.245980
-0.247704
-0.249169
-0.250576
-0.252066
-0.253755
-0.255692
-0.257885
-0.260263
-0.262746
-0.265188
-0.267430
-0.269358
-0.270800
-0.271673
-0.271933
-0.271555
-0.270617
-0.269224
-0.267516
-0.265682
-0.263920
-0.262399
-0.261283
-0.260699
-0.260706
-0.261319
-0.262487
-0.264070
-0.265937
-0.267878
-0.269680
-0.271175
-0.272160
-0.272531
-0.272190
-0.271135
-0.269406
-0.267132
-0.264475
-0.261636
-0.258817
-0.256242
-0.254059
-0.252468
-0.251519
-0.251271
-0.251691
-0.252665
-0.254074
-0.255692
-0.257344
-0.258834
-0.259964
-0.260613
-0.260656
-0.260068
-0.258877
-0.257162
-0.255069
-0.252796
-0.250507
-0.248447
-0.246789
-0.245691
-0.245306
-0.245672
-0.246774
-0.248600
-0.250952
-0.253701
-0.256634
-0.259559
-0.262261
-0.264554
-0.266296
-0.267387
-0.267791
-0.267538
-0.266707
-0.265406
-0.263824
-0.262084
-0.260384
-0.258857
-0.257609
-0.256746
-0.256246
-0.256092
-0.256195
-0.256434
-0.256692
-0.256810
-0.256678
-0.256194
-0.255287
-0.253964
-0.252195
-0.250138
-0.247871
-0.245563
-0.243399
-0.241499
-0.240049
-0.239122
-0.238800
-0.239094
-0.239954
-0.241272
-0.242925
-0.244720
-0.246488
-0.248052
-0.249238
-0.249948
-0.250084
-0.249645
-0.248661
-0.247219
-0.245480
-0.243600
-0.241773
-0.240182
-0.238978
-0.238289
-0.238180
-0.238684
-0.239742
-0.241279
-0.243133
-0.245150
-0.247120
-0.248887
-0.250287
-0.251191
-0.251542
-0.251293
-0.250498
-0.249231
-0.247616
-0.245829
-0.243984
-0.242305
-0.240865
-0.239771
-0.239093
-0.238781
-0.238831
-0.239102
-0.239469
-0.239777
-0.239840
-0.239536
-0.238708
-0.237291
-0.235257
-0.232597
-0.229437
-0.225885
-0.222121
-0.218363
-0.214789
-0.211656
-0.209075
-0.207224
-0.206166
-0.205926
-0.206452
-0.207646
-0.209329
-0.211325
-0.213411
-0.215341
-0.216974
-0.218090
-0.218621
-0.218479
-0.217693
-0.216319
-0.214475
-0.212332
-0.210075
-0.207882
-0.205953
-0.204400
-0.203369
-0.202863
-0.202896
-0.203386
-0.204241
-0.205275
-0.206366
-0.207302
-0.207937
-0.208187
-0.207923
-0.207161
-0.205884
-0.204201
-0.202207
-0.200061
-0.197924
-0.195941
-0.194253
-0.192945
-0.192083
-0.191639
-0.191576
-0.191777
-0.192113
-0.192405
-0.192518
-0.192258
-0.191545
-0.190287
-0.188455
-0.186099
-0.183320
-0.180247
-0.177079
-0.174020
-0.171308
-0.169105
-0.167600
-0.166879
-0.167007
-0.167926
-0.169587
-0.171810
-0.174417
-0.177170
-0.179816
-0.182141
-0.183920
-0.184992
-0.185243
-0.184624
-0.183148
-0.180880
-0.177933
-0.174462
-0.170604
-0.166526
-0.162364
-0.158184
-0.154084
-0.150023
-0.145980
-0.141869
-0.137530
-0.132849
-0.127655
-0.121824
-0.115264
-0.107890
-0.099706
-0.090787
-0.081203
-0.071134
-0.060783
-0.050346
-0.040033
-0.030090
-0.020651
-0.011853
-0.003809
0.003525
0.010201
0.016317
0.022099
0.027736
0.033443
0.039490
0.046046
0.053329
0.061419
0.070407
0.080250
0.090871
0.102145
0.113858
0.125817
0.137790
0.149532
0.160850
0.171591
0.181632
0.190939
0.199494
0.207364
0.214603
0.221332
0.227636
0.233620
0.239330
0.244775
0.249935
0.254706
0.258950
0.262504
0.265174
0.266747
0.267062
0.265954
0.263299
0.259058
0.253254
0.245956
0.237323
0.227549
0.216857
0.205496
0.193689
0.181696
0.169634
0.157682
0.145870
0.134190
0.122599
0.110984
0.099198
0.087121
0.074599
0.061541
0.047882
0.033629
0.018839
0.003660
-0.011699
-0.027042
-0.042021
-0.056405
-0.069911
-0.082279
-0.093378
-0.103053
-0.111293
-0.118145
-0.123712
-0.128186
-0.131766
-0.134695
-0.137255
-0.139635
-0.142028
-0.144571
-0.147331
-0.150304
-0.153449
-0.156618
-0.159718
-0.162524
-0.164894
-0.166650
-0.167672
-0.167876
-0.167271
-0.165872
-0.163846
-0.161314
-0.158520
-0.155719
-0.153140
-0.151081
-0.149717
-0.149268
-0.149855
-0.151521
-0.154281
-0.158034
-0.162624
-0.167845
-0.173426
-0.179091
-0.184522
-0.189340
-0.193256
-0.195881
-0.196885
-0.195878
-0.192496
-0.186371
-0.177013
-0.163978
-0.146737
-0.124734
-0.097361
-0.063948
-0.023896
0.023433
0.078638
0.142232
0.214627
0.296096
0.386738
0.486490
0.595033
0.711896
0.836350
0.967456
1.104104
1.244990
1.388666
1.533519
1.677809
1.819826
1.957651
2.089383
2.213167
2.327087
2.429295
2.517997
2.591521
2.648324
2.686992
2.706357
2.705491
2.683739
2.640858
2.576909
2.492407
2.388274
2.265870
2.126965
1.973729
1.808675
1.634609
1.454530
1.271554
1.088788
0.909264
0.735816
0.570970
0.416887
0.275329
0.147518
0.034259
-0.064229
-0.148094
-0.217940
-0.274715
-0.319594
-0.354021
-0.379402
-0.397281
-0.409063
-0.416029
-0.419344
-0.419900
-0.418429
-0.415466
-0.411327
-0.406175
-0.400078
-0.392981
-0.384821
-0.375520
-0.365003
-0.353289
-0.340404
-0.326479
-0.311720
-0.296369
-0.280703
-0.265048
-0.249685
-0.234887
-0.220893
-0.207904
-0.195999
-0.185310
-0.175792
-0.167421
-0.160126
-0.153802
-0.148339
-0.143639
-0.139600
-0.136132
-0.133216
-0.130773
-0.128831
-0.127319
-0.126250
-0.125567
-0.125193
-0.125055
-0.125018
-0.124951
-0.124688
-0.124073
-0.122923
-0.121091
-0.118503
-0.115067
-0.110767
-0.105667
-0.099862
-0.093494
-0.086765
-0.079874
-0.073043
-0.066456
-0.060308
-0.054728
-0.049768
-0.045499
-0.041828
-0.038660
-0.035886
-0.033288
-0.030711
-0.027966
-0.024881
-0.021355
-0.017314
-0.012737
-0.007685
-0.002245
0.003455
0.009240
0.014966
0.020442
0.025553
0.030181
0.034295
0.037903
0.041058
0.043895
0.046546
0.049190
0.051994
0.055124
0.058689
0.062795
0.067441
0.072607
0.078202
0.084099
0.090136
0.096136
0.101901
0.107295
0.112183
0.116521
0.120287
0.123560
0.126443
0.129113
0.131760
0.134611
0.137879
0.141771
0.146430
0.151963
0.158386
0.165697
0.173761
0.182452
0.191555
0.200828
0.210004
0.218852
0.227153
0.234755
0.241517
0.247455
0.252565
0.256924
0.260705
0.264092
0.267282
0.270522
0.273997
0.277885
0.282320
0.287368
0.293055
0.299325
0.306108
0.313260
0.320642
0.328124
0.335556
0.342839
0.349949
0.356855
0.363622
0.370344
0.377149
0.384220
0.391720
0.399807
0.408610
0.418221
0.428685
0.439976
0.451985
0.464610
0.477635
0.490853
0.504047
0.516985
0.529504
0.541437
0.552725
0.563356
0.573354
0.582861
0.591995
0.600967
0.609961
0.619174
0.628781
0.638873
0.649518
0.660705
0.672328
0.684287
0.696346
0.708298
0.719883
0.730863
0.741030
0.750229
0.758350
0.765364
0.771320
0.776291
0.780478
0.784057
0.787251
0.790291
0.793375
0.796679
0.800285
0.804276
0.808608
0.813228
0.818003
0.822756
0.827324
0.831498
0.835130
0.838065
0.840219
0.841535
0.842020
0.841743
0.840759
0.839238
0.837254
0.834979
0.832476
0.829830
0.827054
0.824110
0.820940
0.817391
0.813297
0.808473
0.802695
0.795775
0.787538
0.777861
0.766676
0.753949
0.739752
0.724154
0.707354
0.689525
0.670882
0.651688
0.632080
0.612316
0.592480
0.572688
0.552994
0.533337
0.513715
0.494006
0.474128
0.453981
0.433491
0.412618
0.391367
0.369798
0.347991
0.326115
0.304331
0.282832
0.261830
0.241488
0.221936
0.203275
0.185539
0.168653
0.152546
0.137045
0.121949
0.107036
0.092080
0.076862
0.061237
0.045090
0.028370
0.011152
-0.006485
-0.024311
-0.042102
-0.059578
-0.076414
-0.092333
-0.107092
-0.120450
-0.132322
-0.142615
-0.151385
-0.158720
-0.164804
-0.169869
-0.174160
-0.177959
-0.181489
-0.184968
-0.188558
-0.192346
-0.196374
-0.200587
-0.204917
-0.209225
-0.213334
-0.217122
-0.220406
-0.223101
-0.225135
-0.226485
-0.227214
-0.227392
-0.227156
-0.226679
-0.226126
-0.225651
-0.225417
-0.225505
-0.225982
-0.226847
-0.228034
-0.229460
-0.230983
-0.232431
-0.233626
-0.234403
-0.234626
-0.234166
-0.233011
-0.231124
-0.228598
-0.225519
-0.222074
-0.218437
-0.214825
-0.211436
-0.208465
-0.206054
-0.204311
-0.203292
-0.202993
-0.203339
-0.204235
-0.205510
-0.207005
-0.208537
-0.209951
-0.211102
-0.211880
-0.212245
-0.212185
-0.211741
-0.211014
-0.210085
-0.209129
-0.208243
-0.207543
-0.207137
-0.207024
-0.207240
-0.207720
-0.208349
-0.209027
-0.209555
-0.209813
-0.209611
-0.208823
-0.207387
-0.205231
-0.202398
-0.198929
-0.194963
-0.190655
-0.186219
-0.181827
-0.177688
-0.173971
-0.170798
-0.168249
-0.166333
-0.165028
-0.164215
-0.163754
-0.163478
-0.163183
-0.162712
-0.161905
-0.160654
-0.158924
-0.156686
-0.154032
-0.151054
-0.147944
-0.144899
-0.142107
-0.139800
-0.138113
-0.137191
-0.137089
-0.137830
-0.139343
-0.141538
-0.144230
-0.147234
-0.150344
-0.153343
-0.156074
-0.158372
-0.160156
-0.161390
-0.162087
-0.162331
-0.162255
-0.161993
-0.161725
-0.161593
-0.161751
-0.162268
-0.163270
-0.164707
-0.166578
-0.168813
-0.171246
-0.173787
-0.176234
-0.178471
-0.180363
-0.181795
-0.182747
-0.183183
-0.183165
-0.182787
-0.182160
-0.181414
-0.180713
-0.180180
-0.179927
-0.180044
-0.180553
-0.181450
-0.182642
-0.184050
-0.185484
-0.186796
-0.187808
-0.188353
-0.188307
-0.187570
-0.186100
-0.183906
-0.181101
-0.177791
-0.174155
-0.170402
-0.166729
-0.163361
-0.160450
-0.158162
-0.156544
-0.155648
-0.155421
-0.155756
-0.156528
-0.157543
-0.158617
-0.159555
-0.160176
-0.160356
-0.160014
-0.159093
-0.157641
-0.155686
-0.153368
-0.150821
-0.148179
-0.145604
-0.143207
-0.141093
-0.139280
-0.137795
-0.136582
-0.135531
-0.134547
-0.133484
-0.132205
-0.130611
-0.128637
-0.126231
-0.123461
-0.120369
-0.117128
-0.113895
-0.110894
-0.108341
-0.106418
-0.105299
-0.105069
-0.105797
-0.107408
-0.109813
-0.112796
-0.116098
-0.119406
-0.122391
-0.124742
-0.126126
-0.126349
-0.125177
-0.122536
-0.118426
-0.112906
-0.106155
-0.098405
-0.089902
-0.080966
-0.071892
-0.062935
-0.054339
-0.046286
-0.038867
-0.032086
-0.025945
-0.020297
-0.014996
-0.009876
-0.004704
0.000683
0.006487
0.012835
0.019816
0.027489
0.035809
0.044764
0.054222
0.064067
0.074216
0.084446
0.094738
0.104957
0.115069
0.125067
0.134969
0.144817
0.154706
0.164669
0.174826
0.185185
0.195804
0.206630
0.217619
0.228639
0.239547
0.250142
0.260239
0.269611
0.278057
0.285403
0.291505
0.296277
0.299685
0.301707
0.302457
0.302018
0.300527
0.298128
0.294964
0.291178
0.286840
0.282025
0.276746
0.270980
0.264655
0.257704
0.250002
0.241494
0.232074
0.221723
0.210445
0.198296
0.185399
0.171925
0.158111
0.144207
0.130459
0.117140
0.104465
0.092619
0.081703
0.071781
0.062837
0.054736
0.047337
0.040406
0.033688
0.026955
0.019949
0.012480
0.004420
-0.004340
-0.013764
-0.023781
-0.034214
-0.044866
-0.055475
-0.065762
-0.075470
-0.084362
-0.092214
-0.098926
-0.104388
-0.108615
-0.111702
-0.113752
-0.114950
-0.115495
-0.115600
-0.115445
-0.115212
-0.115023
-0.114960
-0.115050
-0.115288
-0.115633
-0.116003
-0.116331
-0.116526
-0.116531
-0.116304
-0.115877
-0.115278
-0.114641
-0.114081
-0.113755
-0.113811
-0.114414
-0.115658
-0.117591
-0.120233
-0.123467
-0.127080
-0.130793
-0.134174
-0.136771
-0.137964
-0.137176
-0.133713
-0.126888
-0.116023
-0.100389
-0.079447
-0.052570
-0.019251
0.020962
0.068467
0.123565
0.186538
0.257562
0.336745
0.424133
0.519712
0.623335
0.734787
0.853683
0.979524
1.111635
1.249170
1.391118
1.536193
1.682945
1.829755
1.974766
2.115996
2.251322
2.378610
2.495655
2.600301
2.690525
2.764446
2.820431
2.857100
2.873421
2.868713
2.842702
2.795510
2.727664
2.640116
2.534145
2.411398
2.273795
2.123497
1.962867
1.794391
1.620628
1.444151
1.267479
1.093025
0.923034
0.759562
0.604402
0.459094
0.324854
0.202572
0.092857
-0.004069
-0.088206
-0.159902
-0.219728
-0.268443
-0.307029
-0.336552
-0.358144
-0.372982
-0.382208
-0.386876
-0.387980
-0.386388
-0.382795
-0.377792
-0.371765
-0.365039
-0.357734
-0.349943
-0.341642
-0.332779
-0.323305
-0.313139
-0.302253
-0.290678
-0.278470
-0.265785
-0.252774
-0.239695
-0.226782
-0.214287
-0.202484
-0.191590
-0.181788
-0.173209
-0.165872
-0.159806
-0.154882
-0.150967
-0.147869
-0.145361
-0.143206
-0.141207
-0.139139
-0.136890
-0.134359
-0.131506
-0.128400
-0.125094
-0.121759
-0.118541
-0.115630
-0.113197
-0.111341
-0.110212
-0.109786
-0.110061
-0.110945
-0.112260
-0.113825
-0.115396
-0.116725
-0.117566
-0.117716
-0.117008
-0.115324
-0.112623
-0.108940
-0.104353
-0.099028
-0.093152
-0.086912
-0.080552
-0.074245
-0.068170
-0.062440
-0.057113
-0.052208
-0.047634
-0.043337
-0.039149
-0.034936
-0.030550
-0.025879
-0.020823
-0.015339
-0.009464
-0.003231
0.003175
0.009657
0.015988
0.021960
0.027459
0.032274
0.036364
0.039661
0.042199
0.044104
0.045483
0.046573
0.047568
0.048719
0.050214
0.052237
0.054922
0.058323
0.062453
0.067220
0.072526
0.078181
0.084027
0.089855
0.095485
0.100785
0.105637
0.110023
0.113919
0.117462
0.120738
0.123954
0.127308
0.130991
0.135206
0.140100
0.145774
0.152311
0.159637
0.167742
0.176447
0.185598
0.195000
0.204389
0.213608
0.222455
0.230798
0.238586
0.245762
0.252434
0.258658
0.264640
0.270550
0.276593
0.282985
0.289889
0.297444
0.305719
0.314740
0.324444
0.334741
0.345445
0.356367
0.367308
0.378051
0.388410
0.398275
0.407504
0.416106
0.424096
0.431562
0.438656
0.445532
0.452421
0.459489
0.466919
0.474844
0.483364
0.492498
0.502216
0.512433
0.523026
0.533806
0.544659
0.555343
0.565754
0.575739
0.585213
0.594199
0.602669
0.610761
0.618566
0.626236
0.633920
0.641779
0.649901
0.658400
0.667276
0.676495
0.686008
0.695633
0.705226
0.714585
0.723527
0.731855
0.739448
0.746188
0.752053
0.757053
0.761277
0.764862
0.767986
0.770828
0.773596
0.776453
0.779552
0.782963
0.786725
0.790757
0.794970
0.799176
0.803151
0.806702
0.809512
0.811394
0.812120
0.811505
0.809442
0.805888
0.800843
0.794405
0.786666
0.777812
0.767955
0.757314
0.746028
0.734212
0.721981
0.709366
0.696351
0.682933
0.668997
0.654519
0.639357
0.623455
0.606758
0.589210
0.570856
0.551721
0.531949
0.511671
0.491044
0.470269
0.449511
0.428907
0.408580
0.388591
0.368944
0.349619
0.330487
0.311423
0.292241
0.272771
0.252824
0.232261
0.210995
0.188971
0.166260
0.142967
0.119311
0.095520
0.071914
0.048820
0.026568
0.005461
-0.014244
-0.032346
-0.048748
-0.063418
-0.076442
-0.087987
-0.098248
-0.107549
-0.116147
-0.124394
-0.132551
-0.140873
-0.149527
-0.158625
-0.168157
-0.178073
-0.188241
-0.198459
-0.208506
-0.218154
-0.227166
-0.235337
-0.242543
-0.248689
-0.253765
-0.257827
-0.260973
-0.263383
-0.265223
-0.266694
-0.268009
-0.269284
-0.270663
-0.272200
-0.273870
-0.275661
-0.277449
-0.279118
-0.280543
-0.281555
-0.282049
-0.281933
-0.281163
-0.279759
-0.277758
-0.275276
-0.272456
-0.269443
-0.266433
-0.263560
-0.260993
-0.258824
-0.257106
-0.255858
-0.254997
-0.254453
-0.254098
-0.253742
-0.253250
-0.252439
-0.251177
-0.249356
-0.246940
-0.243910
-0.240349
-0.236329
-0.232018
-0.227561
-0.223159
-0.218999
-0.215226
-0.211972
-0.209290
-0.207221
-0.205712
-0.204695
-0.204034
-0.203573
-0.203143
-0.202570
-0.201687
-0.200426
-0.198684
-0.196440
-0.193773
-0.190708
-0.187410
-0.184023
-0.180697
-0.177645
-0.174978
-0.172807
-0.171225
-0.170203
-0.169756
-0.169775
-0.170139
-0.170702
-0.171275
-0.171714
-0.171844
-0.171547
-0.170769
-0.169463
-0.167647
-0.165408
-0.162814
-0.159999
-0.157117
-0.154279
-0.151601
-0.149181
-0.147045
-0.145183
-0.143545
-0.142050
-0.140568
-0.138966
-0.137136
-0.134933
-0.132300
-0.129174
-0.125577
-0.121570
-0.117260
-0.112816
-0.108416
-0.104272
-0.100575
-0.097498
-0.095164
-0.093652
-0.092972
-0.093089
-0.093882
-0.095221
-0.096916
-0.098747
-0.100533
-0.102055
-0.103203
-0.103870
-0.104007
-0.103653
-0.102824
-0.101675
-0.100320
-0.098916
-0.097627
-0.096576
-0.095870
-0.095557
-0.095651
-0.096097
-0.096802
-0.097659
-0.098501
-0.099166
-0.099529
-0.099444
-0.098838
-0.097676
-0.095965
-0.093793
-0.091264
-0.088556
-0.085854
-0.083378
-0.081322
-0.079870
-0.079114
-0.079154
-0.079981
-0.081516
-0.083671
-0.086221
-0.088947
-0.091612
-0.093940
-0.095727
-0.096774
-0.096956
-0.096209
-0.094538
-0.092054
-0.088889
-0.085266
-0.081444
-0.077680
-0.074248
-0.071357
-0.069209
-0.067908
-0.067489
-0.067948
-0.069169
-0.070997
-0.073216
-0.075556
-0.077833
-0.079749
-0.081122
-0.081820
-0.081706
-0.080771
-0.079010
-0.076517
-0.073421
-0.069855
-0.065986
-0.061953
-0.057859
-0.053790
-0.049762
-0.045740
-0.041670
-0.037418
-0.032850
-0.027791
-0.022105
-0.015673
-0.008405
-0.000319
0.008576
0.018164
0.028312
0.038792
0.049413
0.059906
0.070102
0.079801
0.088896
0.097332
0.105142
0.112417
0.119320
0.126044
0.132854
0.139974
0.147643
0.156040
0.165284
0.175467
0.186555
0.198471
0.211053
0.224060
0.237260
0.250332
0.263015
0.275056
0.286209
0.296367
0.305362
0.313218
0.319926
0.325601
0.330390
0.334380
0.337808
0.340757
0.343350
0.345658
0.347700
0.349414
0.350723
0.351452
0.351406
0.350408
0.348222
0.344709
0.339706
0.333145
0.324982
0.315268
0.304108
0.291688
0.278209
0.263931
0.249109
0.233994
0.218817
0.203792
0.189052
0.174720
0.160814
0.147359
0.134296
0.121586
0.109151
0.096947
0.084943
0.073109
0.061483
0.050151
0.039171
0.028704
0.018874
0.009835
0.001714
-0.005390
-0.011412
-0.016359
-0.020274
-0.023258
-0.025490
-0.027132
-0.028422
-0.029561
-0.030746
-0.032189
-0.033992
-0.036254
-0.038974
-0.042088
-0.045501
-0.049054
-0.052558
-0.055837
-0.058711
-0.061024
-0.062675
-0.063633
-0.063912
-0.063589
-0.062849
-0.061868
-0.060891
-0.060158
-0.059931
-0.060391
-0.061703
-0.063963
-0.067187
-0.071339
-0.076281
-0.081853
-0.087784
-0.093798
-0.099621
-0.104898
-0.109344
-0.112616
-0.114438
-0.114512
-0.112476
-0.108096
-0.100962
-0.090767
-0.077039
-0.059306
-0.037054
-0.009675
0.023463
0.063037
0.109655
0.164003
0.226612
0.297991
0.378472
0.468261
0.567369
0.675571
0.792466
0.917395
1.049485
1.187656
1.330642
1.477022
1.625132
1.773366
1.919866
2.062823
2.200320
2.330469
2.451481
2.561474
2.658764
2.741711
2.808805
2.858722
2.890243
2.902476
2.894755
2.866655
2.818148
2.749499
2.661367
2.554802
2.431196
2.292332
2.140308
1.977502
1.806517
1.630111
1.451084
1.272258
1.096332
0.925783
0.762854
0.609413
0.466993
0.336668
0.219090
0.114532
0.022827
-0.056457
-0.124075
-0.180980
-0.228216
-0.266962
-0.298307
-0.323333
-0.342976
-0.358054
-0.369225
-0.376993
-0.381722
-0.383689
-0.383043
-0.379940
-0.374485
-0.366803
-0.357099
-0.345550
-0.332516
-0.318284
-0.303275
-0.287914
-0.272553
-0.257664
-0.243516
-0.230429
-0.218561
-0.208018
-0.198786
-0.190786
-0.183876
-0.177849
-0.172489
-0.167550
-0.162839
-0.158145
-0.153373
-0.148403
-0.143249
-0.137938
-0.132539
-0.127154
-0.121903
-0.116870
-0.112164
-0.107831
-0.103883
-0.100290
-0.096952
-0.093783
-0.090646
-0.087379
-0.083875
-0.079979
-0.075634
-0.070798
-0.065464
-0.059736
-0.053682
-0.047504
-0.041353
-0.035431
-0.029934
-0.025004
-0.020772
-0.017311
-0.014623
-0.012657
-0.011301
-0.010384
-0.009712
-0.009055
-0.008194
-0.006931
-0.005062
-0.002506
0.000877
0.005023
0.009931
0.015470
0.021486
0.027822
0.034238
0.040573
0.046641
0.052314
0.057510
0.062168
0.066336
0.070063
0.073463
0.076691
0.079884
0.083210
0.086821
0.090818
0.095282
0.100266
0.105751
0.111697
0.118025
0.124644
0.131434
0.138294
0.145135
0.151887
0.158513
0.165026
0.171458
0.177864
0.184338
0.190953
0.197792
0.204932
0.212373
0.220136
0.228146
0.236326
0.244560
0.252675
0.260562
0.268041
0.275004
0.281375
0.287101
0.292189
0.296717
0.300815
0.304627
0.308350
0.312189
0.316302
0.320881
0.326012
0.331768
0.338165
0.345129
0.352556
0.360299
0.368147
0.375934
0.383488
0.390648
0.397342
0.403477
0.409133
0.414386
0.419378
0.424354
0.429536
0.435221
0.441615
0.448954
0.457445
0.467139
0.478101
0.490287
0.503528
0.517645
0.532369
0.547396
0.562428
0.577152
0.591305
0.604686
0.617126
0.628592
0.639101
0.648734
0.657688
0.666160
0.674391
0.682650
0.691147
0.700092
0.709619
0.719770
0.730563
0.741894
0.753624
0.765553
0.777420
0.789007
0.800038
0.810313
0.819657
0.827950
0.835169
0.841297
0.846467
0.850763
0.854403
0.857550
0.860424
0.863213
0.866038
0.869059
0.872304
0.875781
0.879442
0.883196
0.886930
0.890479
0.893708
0.896441
0.898558
0.899947
0.900527
0.900261
0.899118
0.897092
0.894188
0.890429
0.885797
0.880307
0.873907
0.866546
0.858145
0.848611
0.837836
0.825774
0.812361
0.797559
0.781425
0.764009
0.745463
0.725955
0.705718
0.684994
0.664027
0.643080
0.622352
0.602023
0.582218
0.562961
0.544255
0.525979
0.507988
0.490083
0.472053
0.453706
0.434832
0.415283
0.394985
0.373897
0.352091
0.329688
0.306889
0.283962
0.261135
0.238723
0.216970
0.196110
0.176327
0.157689
0.140215
0.123834
0.108371
0.093619
0.079340
0.065230
0.051042
0.036515
0.021478
0.005825
-0.010479
-0.027350
-0.044648
-0.062132
-0.079504
-0.096476
-0.112674
-0.127821
-0.141638
-0.153915
-0.164544
-0.173473
-0.180781
-0.186582
-0.191097
-0.194591
-0.197347
-0.199631
-0.201756
-0.203886
-0.206210
-0.208824
-0.211717
-0.214877
-0.218175
-0.221464
-0.224563
-0.227304
-0.229542
-0.231168
-0.232112
-0.232404
-0.232077
-0.231282
-0.230168
-0.228933
-0.227773
-0.226876
-0.226392
-0.226407
-0.226945
-0.227954
-0.229326
-0.230877
-0.232365
-0.233550
-0.234158
-0.233943
-0.232742
-0.230372
-0.226815
-0.222071
-0.216244
-0.209522
-0.202165
-0.194440
-0.186698
-0.179216
-0.172269
-0.166094
-0.160841
-0.156618
-0.153431
-0.151272
-0.150001
-0.149481
-0.149546
-0.150005
-0.150685
-0.151479
-0.152269
-0.153036
-0.153776
-0.154536
-0.155403
-0.156499
-0.157928
-0.159787
-0.162126
-0.164989
-0.168317
-0.172027
-0.176003
-0.180011
-0.183874
-0.187343
-0.190165
-0.192159
-0.193110
-0.192932
-0.191582
-0.189062
-0.185495
-0.181025
-0.175888
-0.170339
-0.164640
-0.159115
-0.153963
-0.149437
-0.145677
-0.142767
-0.140771
-0.139618
-0.139248
-0.139507
-0.140237
-0.141247
-0.142366
-0.143423
-0.144327
-0.144956
-0.145303
-0.145369
-0.145210
-0.144925
-0.144623
-0.144423
-0.144450
-0.144784
-0.145491
-0.146597
-0.148086
-0.149910
-0.151961
-0.154125
-0.156274
-0.158251
-0.159969
-0.161328
-0.162287
-0.162839
-0.163017
-0.162913
-0.162638
-0.162308
-0.162081
-0.162088
-0.162429
-0.163168
-0.164346
-0.165906
-0.167794
-0.169882
-0.172012
-0.174012
-0.175700
-0.176906
-0.177503
-0.177407
-0.176599
-0.175099
-0.173018
-0.170474
-0.167684
-0.164835
-0.162175
-0.159889
-0.158184
-0.157173
-0.156937
-0.157518
-0.158847
-0.160845
-0.163364
-0.166211
-0.169213
-0.172173
-0.174921
-0.177321
-0.179298
-0.180774
-0.181793
-0.182359
-0.182576
-0.182541
-0.182341
-0.182087
-0.181817
-0.181608
-0.181435
-0.181266
-0.181004
-0.180557
-0.179781
-0.178522
-0.176657
-0.174043
-0.170631
-0.166362
-0.161292
-0.155481
-0.149057
-0.142186
-0.135054
-0.127874
-0.120835
-0.114099
-0.107790
-0.101954
-0.096584
-0.091597
-0.086861
-0.082176
-0.077321
-0.072033
-0.066107
-0.059293
-0.051496
-0.042579
-0.032593
-0.021592
-0.009753
0.002690
0.015454
0.028205
0.040658
0.052472
0.063420
0.073323
0.082078
0.089670
0.096187
0.101791
0.106704
0.111251
0.115675
0.120305
0.125352
0.131015
0.137382
0.144452
0.152140
0.160210
0.168415
0.176363
0.183673
0.189943
0.194804
0.197924
0.199075
0.198080
0.194907
0.189596
0.182305
0.173274
0.162801
0.151212
0.138842
0.126003
0.112963
0.099915
0.087029
0.074348
0.061891
0.049593
0.037359
0.025073
0.012628
-0.000075
-0.013065
-0.026360
-0.039921
-0.053641
-0.067404
-0.081020
-0.094310
-0.107084
-0.119167
-0.130474
-0.140890
-0.150426
-0.159074
-0.166923
-0.174089
-0.180706
-0.186923
-0.192886
-0.198727
-0.204520
-0.210299
-0.216045
-0.221704
-0.227165
-0.232299
-0.236941
-0.240959
-0.244213
-0.246601
-0.248113
-0.248754
-0.248604
-0.247838
-0.246616
-0.245205
-0.243873
-0.242881
-0.242485
-0.242908
-0.244265
-0.246697
-0.250188
-0.254713
-0.260170
-0.266360
-0.273084
-0.280102
-0.287165
-0.294043
-0.300517
-0.306447
-0.311683
-0.316144
-0.319766
-0.322528
-0.324391
-0.325326
-0.325257
-0.324050
-0.321506
-0.317301
-0.311084
-0.302337
-0.290543
-0.275035
-0.255121
-0.230133
-0.199304
-0.161982
-0.117509
-0.065374
-0.005144
0.063497
0.140703
0.226468
0.320666
0.423006
0.533054
0.650252
0.773916
0.903258
1.037321
1.175115
1.315531
1.457234
1.598903
1.739004
1.875952
2.007967
2.133222
2.249821
2.355775
2.449106
2.527906
2.590362
2.634859
2.660010
2.664708
2.648293
2.610446
2.551314
2.471552
2.372219
2.254843
2.121335
1.973962
1.815276
1.647963
1.474861
1.298776
1.122463
0.948515
0.779261
0.616798
0.462850
0.318809
0.185698
0.064190
-0.045365
-0.142915
-0.228689
-0.303081
-0.366715
-0.420272
-0.464562
-0.500418
-0.528653
-0.550156
-0.565676
-0.576017
-0.581880
-0.583961
-0.582869
-0.579185
-0.573418
-0.566067
-0.557518
-0.548133
-0.538230
-0.528026
-0.517726
-0.507442
-0.497263
-0.487223
-0.477305
-0.467518
-0.457813
-0.448168
-0.438587
-0.429062
-0.419657
-0.410443
-0.401534
-0.393019
-0.385102
-0.377866
-0.371478
-0.365993
-0.361469
-0.357916
-0.355251
-0.353374
-0.352108
-0.351236
-0.350520
-0.349670
-0.348482
-0.346681
-0.344146
-0.340745
-0.336435
-0.331271
-0.325339
-0.318838
-0.311982
-0.305035
-0.298258
-0.291904
-0.286192
-0.281278
-0.277260
-0.274162
-0.271907
-0.270377
-0.269373
-0.268652
-0.267987
-0.267128
-0.265862
-0.264041
-0.261538
-0.258345
-0.254479
-0.250048
-0.245215
-0.240157
-0.235067
-0.230155
-0.225566
-0.221434
-0.217791
-0.214648
-0.211946
-0.209521
-0.207243
-0.204867
-0.202219
-0.199100
-0.195362
-0.190897
-0.185675
-0.179690
-0.173040
-0.165863
-0.158331
-0.150684
-0.143124
-0.135848
-0.129020
-0.122745
-0.117102
-0.112041
-0.107540
-0.103426
-0.099536
-0.095672
-0.091615
-0.087161
-0.082170
-0.076537
-0.070224
-0.063255
-0.055727
-0.047809
-0.039678
-0.031610
-0.023820
-0.016534
-0.009960
-0.004180
0.000698
0.004714
0.007949
0.010552
0.012759
0.014815
0.017017
0.019640
0.022928
0.027075
0.032226
0.038438
0.045694
0.053930
0.062966
0.072642
0.082697
0.092919
0.103062
0.112955
0.122461
0.131489
0.140046
0.148162
0.155942
0.163567
0.171201
0.179026
0.187231
0.195951
0.205290
0.215276
0.225885
0.237054
0.248621
0.260450
0.272332
0.284056
0.295486
0.306452
0.316900
0.326788
0.336172
0.345162
0.353886
0.362572
0.371412
0.380609
0.390372
0.400783
0.411965
0.423869
0.436453
0.449596
0.463066
0.476704
0.490193
0.503329
0.515879
0.527654
0.538559
0.548520
0.557576
0.565770
0.573266
0.580216
0.586812
0.593244
0.599680
0.606240
0.612983
0.619957
0.627085
0.634290
0.641405
0.648230
0.654574
0.660228
0.665019
0.668791
0.671470
0.673016
0.673460
0.672883
0.671431
0.669275
0.666594
0.663598
0.660417
0.657201
0.654014
0.650851
0.647687
0.644388
0.640789
0.636683
0.631825
0.625991
0.618966
0.610564
0.600669
0.589200
0.576159
0.561615
0.545675
0.528537
0.510357
0.491418
0.471865
0.451943
0.431801
0.411543
0.391260
0.370927
0.350564
0.330066
0.309387
0.288416
0.267051
0.245262
0.222987
0.200245
0.177090
0.153642
0.130010
0.106395
0.082947
0.059829
0.037227
0.015245
-0.006005
-0.026498
-0.046224
-0.065242
-0.083643
-0.101539
-0.119061
-0.136310
-0.153376
-0.170314
-0.187123
-0.203768
-0.220141
-0.236110
-0.251498
-0.266114
-0.279783
-0.292344
-0.303672
-0.313718
-0.322488
-0.330047
-0.336569
-0.342231
-0.347304
-0.352052
-0.356742
-0.361637
-0.366937
-0.372791
-0.379289
-0.386405
-0.394067
-0.402112
-0.410310
-0.418435
-0.426187
-0.433339
-0.439611
-0.444870
-0.448963
-0.451803
-0.453471
-0.454001
-0.453579
-0.452395
-0.450664
-0.448607
-0.446465
-0.444390
-0.442548
-0.441024
-0.439827
-0.438971
-0.438349
-0.437891
-0.437449
-0.436910
-0.436164
-0.435123
-0.433764
-0.432086
-0.430137
-0.428019
-0.425860
-0.423808
-0.422020
-0.420664
-0.419827
-0.419631
-0.420063
-0.421134
-0.422738
-0.424741
-0.427001
-0.429290
-0.431427
-0.433192
-0.434418
-0.434979
-0.434762
-0.433780
-0.432035
-0.429626
-0.426673
-0.423321
-0.419760
-0.416156
-0.412666
-0.409431
-0.406507
-0.403959
-0.401743
-0.399806
-0.398058
-0.396354
-0.394601
-0.392662
-0.390415
-0.387846
-0.384871
-0.381602
-0.378084
-0.374472
-0.370935
-0.367643
-0.364798
-0.362550
-0.361028
-0.360299
-0.360396
-0.361211
-0.362633
-0.364468
-0.366481
-0.368402
-0.369994
-0.371012
-0.371266
-0.370623
-0.369031
-0.366527
-0.363208
-0.359262
-0.354920
-0.350465
-0.346137
-0.342247
-0.338991
-0.336550
-0.335017
-0.334419
-0.334675
-0.335669
-0.337198
-0.339035
-0.340913
-0.342600
-0.343878
-0.344566
-0.344595
-0.343893
-0.342532
-0.340606
-0.338310
-0.335821
-0.333426
-0.331304
-0.329695
-0.328760
-0.328588
-0.329223
-0.330591
-0.332622
-0.335105
-0.337846
-0.340597
-0.343113
-0.345193
-0.346645
-0.347387
-0.347321
-0.346512
-0.345052
-0.343048
-0.340774
-0.338389
-0.336150
-0.334270
-0.332907
-0.332180
-0.332165
-0.332832
-0.334109
-0.335870
-0.337909
-0.340061
-0.342094
-0.343825
-0.345102
-0.345790
-0.345848
-0.345286
-0.344153
-0.342585
-0.340711
-0.338735
-0.336826
-0.335156
-0.333845
-0.332991
-0.332617
-0.332705
-0.333147
-0.333810
-0.334544
-0.335138
-0.335419
-0.335208
-0.334391
-0.332887
-0.330662
-0.327799
-0.324349
-0.320541
-0.316493
-0.312431
-0.308574
-0.305038
-0.302001
-0.299494
-0.297532
-0.296025
-0.294817
-0.293745
-0.292555
-0.291018
-0.288940
-0.286069
-0.282312
-0.277564
-0.271799
-0.265159
-0.257726
-0.249754
-0.241476
-0.233139
-0.225026
-0.217335
-0.210258
-0.203893
-0.198270
-0.193329
-0.188952
-0.184937
-0.181057
-0.177022
-0.172596
-0.167513
-0.161567
-0.154595
-0.146519
-0.137325
-0.127110
-0.115978
-0.104120
-0.091749
-0.079096
-0.066377
-0.053802
-0.041533
-0.029680
-0.018285
-0.007361
0.003161
0.013360
0.023321
0.033204
0.043055
0.052969
0.062958
0.072959
0.082891
0.092580
0.101833
0.110411
0.118048
0.124500
0.129516
0.132912
0.134562
0.134370
0.132395
0.128668
0.123348
0.116622
0.108709
0.099848
0.090290
0.080244
0.069895
0.059351
0.048698
0.037969
0.027119
0.016088
0.004776
-0.006899
-0.019054
-0.031727
-0.044985
-0.058780
-0.073049
-0.087663
-0.102478
-0.117280
-0.131864
-0.146045
-0.159582
-0.172358
-0.184231
-0.195150
-0.205140
-0.214232
-0.222559
-0.230249
-0.237462
-0.244363
-0.251077
-0.257737
-0.264371
-0.270988
-0.277527
-0.283885
-0.289905
-0.295424
-0.300273
-0.304291
-0.307373
-0.309426
-0.310489
-0.310593
-0.309924
-0.308652
-0.307028
-0.305328
-0.303804
-0.302753
-0.302358
-0.302817
-0.304205
-0.306523
-0.309743
-0.313720
-0.318287
-0.323238
-0.328337
-0.333374
-0.338147
-0.342494
-0.346308
-0.349562
-0.352229
-0.354388
-0.356099
-0.357455
-0.358529
-0.359356
-0.359915
-0.360094
-0.359670
-0.358318
-0.355595
-0.350955
-0.343727
-0.333214
-0.318655
-0.299206
-0.274061
-0.242494
-0.203749
-0.157248
-0.102423
-0.038886
0.033646
0.115358
0.206254
0.306249
0.415112
0.532500
0.657945
0.790846
0.930485
1.076015
1.226346
1.380315
1.536556
1.693500
1.849382
2.002240
2.149998
2.290348
2.420908
2.539303
2.643081
2.729996
2.797788
2.844626
2.868862
2.869313
2.845281
2.796537
2.723460
2.626960
2.508490
2.370059
2.214106
2.043470
1.861318
1.670959
1.475879
1.279458
1.084991
0.895560
0.713907
0.542428
0.383042
0.237256
0.106055
-0.009984
-0.110762
-0.196548
-0.267944
-0.325880
-0.371465
-0.406000
-0.430860
-0.447479
-0.457272
-0.461580
-0.461668
-0.458685
-0.453619
-0.447321
-0.440465
-0.433572
-0.427005
-0.420976
-0.415567
-0.410750
-0.406411
-0.402370
-0.398413
-0.394315
-0.389859
-0.384870
-0.379214
-0.372817
-0.365679
-0.357887
-0.349591
-0.340972
-0.332295
-0.323798
-0.315776
-0.308467
-0.302084
-0.296766
-0.292623
-0.289624
-0.287701
-0.286696
-0.286376
-0.286475
-0.286716
-0.286755
-0.286349
-0.285224
-0.283232
-0.280253
-0.276269
-0.271376
-0.265657
-0.259400
-0.252786
-0.246143
-0.239733
-0.233795
-0.228569
-0.224156
-0.220643
-0.217986
-0.216124
-0.214847
-0.213978
-0.213234
-0.212348
-0.211074
-0.209190
-0.206524
-0.202992
-0.198570
-0.193340
-0.187393
-0.180951
-0.174226
-0.167476
-0.160959
-0.154875
-0.149423
-0.144664
-0.140683
-0.137426
-0.134778
-0.132610
-0.130667
-0.128746
-0.126591
-0.123979
-0.120779
-0.116849
-0.112176
-0.106791
-0.100775
-0.094317
-0.087591
-0.080852
-0.074327
-0.068202
-0.062626
-0.057701
-0.053415
-0.049739
-0.046530
-0.043601
-0.040734
-0.037655
-0.034154
-0.029990
-0.025014
-0.019151
-0.012366
-0.004734
0.003611
0.012470
0.021602
0.030718
0.039577
0.047906
0.055551
0.062377
0.068296
0.073394
0.077705
0.081442
0.084807
0.088063
0.091485
0.095295
0.099722
0.104920
0.111005
0.118021
0.125930
0.134643
0.144021
0.153898
0.164098
0.174442
0.184789
0.195023
0.205092
0.214975
0.224708
0.234397
0.244144
0.254094
0.264418
0.275177
0.286519
0.298467
0.311011
0.324134
0.337713
0.351618
0.365696
0.379747
0.393616
0.407176
0.420285
0.432907
0.445031
0.456668
0.467943
0.478998
0.489950
0.501016
0.512321
0.524011
0.536174
0.548872
0.562069
0.575711
0.589673
0.603767
0.617824
0.631618
0.644937
0.657650
0.669612
0.680729
0.691007
0.700482
0.709272
0.717543
0.725463
0.733268
0.741117
0.749226
0.757669
0.766557
0.775856
0.785508
0.795360
0.805196
0.814786
0.823863
0.832180
0.839489
0.845639
0.850462
0.853947
0.856077
0.856986
0.856808
0.855741
0.854048
0.851874
0.849483
0.846992
0.844499
0.842027
0.839532
0.836868
0.833868
0.830288
0.825891
0.820428
0.813664
0.805430
0.795577
0.784060
0.770901
0.756152
0.739987
0.722581
0.704156
0.684946
0.665141
0.644956
0.624523
0.603931
0.583225
0.562370
0.541306
0.519929
0.498127
0.475769
0.452781
0.429061
0.404615
0.379454
0.353673
0.327406
0.300823
0.274146
0.247568
0.221320
0.195586
0.170517
0.146234
0.122778
0.100149
0.078318
0.057151
0.036592
0.016443
-0.003350
-0.022940
-0.042365
-0.061641
-0.080776
-0.099636
-0.118149
-0.136144
-0.153427
-0.169889
-0.185300
-0.199593
-0.212669
-0.224504
-0.235161
-0.244715
-0.253319
-0.261176
-0.268492
-0.275480
-0.282359
-0.289287
-0.296379
-0.303707
-0.311249
-0.318955
-0.326668
-0.334240
-0.341469
-0.348109
-0.353997
-0.358923
-0.362806
-0.365585
-0.367257
-0.367942
-0.367772
-0.366961
-0.365757
-0.364390
-0.363117
-0.362148
-0.361597
-0.361593
-0.362130
-0.363146
-0.364528
-0.366085
-0.367603
-0.368848
-0.369615
-0.369713
-0.369026
-0.367481
-0.365100
-0.361946
-0.358216
-0.354042
-0.349744
-0.345520
-0.341629
-0.338277
-0.335590
-0.333682
-0.332511
-0.332052
-0.332163
-0.332618
-0.333216
-0.333673
-0.333759
-0.333273
-0.332036
-0.329963
-0.327023
-0.323266
-0.318808
-0.313835
-0.308558
-0.303251
-0.298129
-0.293433
-0.289325
-0.285931
-0.283307
-0.281430
-0.280236
-0.279559
-0.279210
-0.278994
-0.278662
-0.278041
-0.276969
-0.275318
-0.273043
-0.270147
-0.266693
-0.262804
-0.258654
-0.254423
-0.250331
-0.246524
-0.243182
-0.240408
-0.238252
-0.236731
-0.235785
-0.235308
-0.235174
-0.235199
-0.235237
-0.235113
-0.234723
-0.233952
-0.232780
-0.231192
-0.229222
-0.227025
-0.224661
-0.222332
-0.220152
-0.218238
-0.216712
-0.215602
-0.214923
-0.214627
-0.214640
-0.214825
-0.215023
-0.215072
-0.214811
-0.214131
-0.212908
-0.211138
-0.208818
-0.206033
-0.202926
-0.199667
-0.196476
-0.193547
-0.191098
-0.189259
-0.188155
-0.187839
-0.188286
-0.189444
-0.191147
-0.193213
-0.195400
-0.197480
-0.199233
-0.200469
-0.201050
-0.200908
-0.200046
-0.198507
-0.196454
-0.194050
-0.191520
-0.189098
-0.186995
-0.185393
-0.184430
-0.184180
-0.184641
-0.185768
-0.187432
-0.189438
-0.191561
-0.193606
-0.195302
-0.196502
-0.197040
-0.196835
-0.195883
-0.194204
-0.191937
-0.189235
-0.186322
-0.183402
-0.180700
-0.178403
-0.176644
-0.175524
-0.175095
-0.175284
-0.176028
-0.177191
-0.178552
-0.179972
-0.181226
-0.182153
-0.182659
-0.182638
-0.182095
-0.181055
-0.179619
-0.177932
-0.176155
-0.174475
-0.173059
-0.172038
-0.171527
-0.171579
-0.172179
-0.173294
-0.174756
-0.176465
-0.178194
-0.179767
-0.181010
-0.181772
-0.181938
-0.181466
-0.180350
-0.178671
-0.176554
-0.174176
-0.171740
-0.169458
-0.167519
-0.166110
-0.165328
-0.165242
-0.165820
-0.166990
-0.168573
-0.170342
-0.172024
-0.173326
-0.173975
-0.173696
-0.172265
-0.169560
-0.165450
-0.159993
-0.153231
-0.145343
-0.136552
-0.127083
-0.117221
-0.107189
-0.097211
-0.087473
-0.078082
-0.069103
-0.060517
-0.052227
-0.044127
-0.036065
-0.027858
-0.019396
-0.010534
-0.001195
0.008662
0.019017
0.029787
0.040892
0.052133
0.063401
0.074514
0.085350
0.095805
0.105811
0.115335
0.124444
0.133176
0.141678
0.150099
0.158575
0.167259
0.176248
0.185600
0.195352
0.205444
0.215807
0.226274
0.236687
0.246814
0.256434
0.265351
0.273378
0.280358
0.286221
0.290912
0.294463
0.296946
0.298458
0.299156
0.299160
0.298636
0.297651
0.296295
0.294580
0.292449
0.289850
0.286629
0.282615
0.277640
0.271498
0.264044
0.255156
0.244760
0.232855
0.219523
0.204881
0.189150
0.172559
0.155408
0.138003
0.120621
0.103557
0.087022
0.071183
0.056175
0.042002
0.028665
0.016078
0.004105
-0.007375
-0.018539
-0.029540
-0.040462
-0.051407
-0.062365
-0.073307
-0.084155
-0.094744
-0.104916
-0.114467
-0.123230
-0.131039
-0.137750
-0.143339
-0.147787
-0.151166
-0.153605
-0.155304
-0.156479
-0.157387
-0.158262
-0.159327
-0.160734
-0.162630
-0.165021
-0.167895
-0.171156
-0.174631
-0.178142
-0.181478
-0.184436
-0.186838
-0.188555
-0.189549
-0.189807
-0.189456
-0.188652
-0.187618
-0.186639
-0.185978
-0.185942
-0.186764
-0.188638
-0.191660
-0.195851
-0.201099
-0.207206
-0.213843
-0.220609
-0.227020
-0.232497
-0.236417
-0.238176
-0.237098
-0.232538
-0.223837
-0.210431
-0.191710
-0.167094
-0.136031
-0.098028
-0.052551
0.000870
0.062747
0.133473
0.213452
0.303002
0.402320
0.511497
0.630478
0.759009
0.896613
1.042581
1.195972
1.355507
1.519614
1.686580
1.854324
2.020588
2.182918
2.338766
2.485478
2.620346
2.740830
2.844428
2.928899
2.992266
3.032807
3.049287
3.040865
3.007159
2.948357
2.865115
2.758611
2.630548
2.483035
2.318653
2.140309
1.951185
1.754683
1.554234
1.353367
1.155427
0.963584
0.780784
0.609498
0.451870
0.309479
0.183400
0.074207
-0.018072
-0.093906
-0.154201
-0.200252
-0.233683
-0.256272
-0.269996
-0.276781
-0.278536
-0.277024
-0.273774
-0.270070
-0.266885
-0.264883
-0.264418
-0.265540
-0.268107
-0.271719
-0.275904
-0.280077
-0.283661
-0.286143
-0.287066
-0.286158
-0.283262
-0.278403
-0.271744
-0.263591
-0.254345
-0.244483
-0.234483
-0.224881
-0.216039
-0.208347
-0.202028
-0.197172
-0.193837
-0.191853
-0.191012
-0.191067
-0.191624
-0.192399
-0.193030
-0.193272
-0.192895
-0.191793
-0.189877
-0.187211
-0.183879
-0.180028
-0.175876
-0.171619
-0.167447
-0.163528
-0.159973
-0.156859
-0.154170
-0.151880
-0.149860
-0.148002
-0.146133
-0.144092
-0.141744
-0.138989
-0.135742
-0.132011
-0.127784
-0.123185
-0.118275
-0.113216
-0.108150
-0.103196
-0.098503
-0.094132
-0.090137
-0.086511
-0.083188
-0.080095
-0.077114
-0.074096
-0.070924
-0.067455
-0.063572
-0.059245
-0.054409
-0.049124
-0.043435
-0.037471
-0.031392
-0.025303
-0.019431
-0.013843
-0.008684
-0.004019
0.000173
0.003896
0.007277
0.010414
0.013520
0.016757
0.020334
0.024405
0.029099
0.034484
0.040569
0.047312
0.054592
0.062263
0.070128
0.077986
0.085616
0.092844
0.099527
0.105574
0.110976
0.115775
0.120092
0.124107
0.128019
0.132050
0.136443
0.141375
0.147028
0.153484
0.160788
0.168918
0.177763
0.187168
0.196957
0.206894
0.216757
0.226337
0.235472
0.244064
0.252037
0.259403
0.266281
0.272732
0.278981
0.285194
0.291572
0.298331
0.305578
0.313483
0.322045
0.331277
0.341127
0.351470
0.362200
0.373108
0.384070
0.394912
0.405519
0.415824
0.425803
0.435505
0.445009
0.454447
0.463944
0.473697
0.483846
0.494544
0.505873
0.517897
0.530617
0.543931
0.557766
0.571923
0.586237
0.600484
0.614481
0.628032
0.640996
0.653265
0.664806
0.675630
0.685805
0.695442
0.704666
0.713666
0.722581
0.731563
0.740732
0.750166
0.759874
0.769846
0.779975
0.790161
0.800232
0.810034
0.819386
0.828132
0.836149
0.843357
0.849739
0.855316
0.860174
0.864439
0.868257
0.871795
0.875228
0.878657
0.882224
0.885932
0.889780
0.893681
0.897462
0.900989
0.903969
0.906185
0.907389
0.907376
0.905941
0.902991
0.898464
0.892383
0.884804
0.875879
0.865780
0.854648
0.842736
0.830145
0.817074
0.803566
0.789663
0.775329
0.760472
0.744986
0.728715
0.711489
0.693196
0.673671
0.652891
0.630796
0.607496
0.583058
0.557713
0.531655
0.505153
0.478493
0.451915
0.425692
0.399994
0.374964
0.350665
0.327101
0.304211
0.281870
0.259946
0.238269
0.216670
0.195014
0.173195
0.151176
0.128977
0.106682
0.084410
0.062358
0.040725
0.019781
-0.000293
-0.019270
-0.037029
-0.053465
-0.068569
-0.082394
-0.095009
-0.106644
-0.117453
-0.127685
-0.137588
-0.147346
-0.157142
-0.167104
-0.177270
-0.187679
-0.198241
-0.208846
-0.219354
-0.229555
-0.239291
-0.248354
-0.256649
-0.264055
-0.270536
-0.276118
-0.280851
-0.284866
-0.288314
-0.291388
-0.294272
-0.297141
-0.300113
-0.303261
-0.306648
-0.310182
-0.313828
-0.317377
-0.320691
-0.323536
-0.325712
-0.327040
-0.327384
-0.326674
-0.324905
-0.322142
-0.318515
-0.314226
-0.309536
-0.304707
-0.300045
-0.295796
-0.292180
-0.289361
-0.287430
-0.286390
-0.286192
-0.286699
-0.287718
-0.289038
-0.290397
-0.291590
-0.292400
-0.292684
-0.292339
-0.291315
-0.289659
-0.287421
-0.284750
-0.281805
-0.278769
-0.275780
-0.273018
-0.270556
-0.268452
-0.266722
-0.265300
-0.264114
-0.262997
-0.261844
-0.260467
-0.258761
-0.256616
-0.253977
-0.250826
-0.247217
-0.243249
-0.239054
-0.234812
-0.230670
-0.226837
-0.223425
-0.220568
-0.218320
-0.216663
-0.215577
-0.214921
-0.214570
-0.214337
-0.214029
-0.213487
-0.212542
-0.211105
-0.209118
-0.206592
-0.203601
-0.200252
-0.196705
-0.193192
-0.189876
-0.187000
-0.184716
-0.183144
-0.182385
-0.182410
-0.183208
-0.184652
-0.186572
-0.188786
-0.191041
-0.193159
-0.194906
-0.196141
-0.196753
-0.196675
-0.195937
-0.194574
-0.192745
-0.190585
-0.188305
-0.186088
-0.184129
-0.182551
-0.181466
-0.180920
-0.180851
-0.181236
-0.181882
-0.182669
-0.183373
-0.183808
-0.183793
-0.183173
-0.181905
-0.179921
-0.177293
-0.174123
-0.170575
-0.166863
-0.163221
-0.159859
-0.157002
-0.154820
-0.153405
-0.152838
-0.153067
-0.154026
-0.155557
-0.157486
-0.159577
-0.161640
-0.163444
-0.164866
-0.165760
-0.166098
-0.165884
-0.165185
-0.164156
-0.162918
-0.161717
-0.160698
-0.160044
-0.159912
-0.160319
-0.161376
-0.162971
-0.165049
-0.167463
-0.170003
-0.172478
-0.174691
-0.176447
-0.177633
-0.178117
-0.177899
-0.177004
-0.175515
-0.173599
-0.171425
-0.169171
-0.167077
-0.165289
-0.163962
-0.163174
-0.162972
-0.163311
-0.164120
-0.165250
-0.166541
-0.167799
-0.168850
-0.169532
-0.169732
-0.169404
-0.168526
-0.167147
-0.165392
-0.163401
-0.161378
-0.159513
-0.158022
-0.157068
-0.156756
-0.157191
-0.158372
-0.160226
-0.162662
-0.165488
-0.168505
-0.171470
-0.174160
-0.176350
-0.177870
-0.178599
-0.178468
-0.177473
-0.175673
-0.173212
-0.170255
-0.166998
-0.163669
-0.160466
-0.157542
-0.155076
-0.153093
-0.151625
-0.150644
-0.150021
-0.149627
-0.149297
-0.148832
-0.148099
-0.146951
-0.145313
-0.143136
-0.140464
-0.137395
-0.134053
-0.130624
-0.127311
-0.124311
-0.121797
-0.119896
-0.118710
-0.118262
-0.118519
-0.119374
-0.120708
-0.122299
-0.123961
-0.125506
-0.126729
-0.127508
-0.127729
-0.127368
-0.126464
-0.125071
-0.123377
-0.121493
-0.119648
-0.118015
-0.116747
-0.115992
-0.115813
-0.116237
-0.117234
-0.118694
-0.120470
-0.122388
-0.124253
-0.125875
-0.127083
-0.127775
-0.127824
-0.127245
-0.126065
-0.124361
-0.122317
-0.120080
-0.117870
-0.115872
-0.114234
-0.113117
-0.112594
-0.112682
-0.113393
-0.114590
-0.116178
-0.117973
-0.119784
-0.121451
-0.122778
-0.123663
-0.124001
-0.123759
-0.122948
-0.121615
-0.119885
-0.117881
-0.115759
-0.113645
-0.111690
-0.109967
-0.108544
-0.107436
-0.106591
-0.105941
-0.105364
-0.104703
-0.103834
-0.102593
-0.100881
-0.098597
-0.095709
-0.092234
-0.088225
-0.083837
-0.079226
-0.074602
-0.070158
-0.066135
-0.062696
-0.060004
-0.058136
-0.057143
-0.056971
-0.057541
-0.058681
-0.060189
-0.061858
-0.063443
-0.064761
-0.065604
-0.065861
-0.065465
-0.064388
-0.062719
-0.060565
-0.058103
-0.055531
-0.053024
-0.050804
-0.048993
-0.047743
-0.047113
-0.047110
-0.047685
-0.048723
-0.050093
-0.051651
-0.053206
-0.054632
-0.055784
-0.056568
-0.056941
-0.056900
-0.056503
-0.055828
-0.055010
-0.054158
-0.053414
-0.052886
-0.052625
-0.052707
-0.053080
-0.053713
-0.054464
-0.055226
-0.055821
-0.056101
-0.055915
-0.055126
-0.053680
-0.051529
-0.048693
-0.045285
-0.041410
-0.037258
-0.033011
-0.028869
-0.024989
-0.021560
-0.018660
-0.016361
-0.014647
-0.013461
-0.012694
-0.012171
-0.011772
-0.011237
-0.010500
-0.009344
-0.007727
-0.005617
-0.002991
-0.000010
0.003263
0.006598
0.009820
0.012741
0.015142
0.016885
0.017855
0.017991
0.017311
0.015879
0.013856
0.011396
0.008712
0.006057
0.003642
0.001663
0.000320
-0.000294
-0.000120
0.000830
0.002474
0.004701
0.007350
0.010215
0.013135
0.015915
0.018411
0.020547
0.022262
0.023626
0.024706
0.025650
0.026666
0.027929
0.029697
0.032148
0.035453
0.039722
0.045024
0.051336
0.058613
0.066719
0.075489
0.084738
0.094248
0.103875
0.113442
0.122868
0.132101
0.141167
0.150147
0.159151
0.168370
0.177951
0.188110
0.198976
0.210686
0.223312
0.236809
0.251128
0.266108
0.281533
0.297136
0.312612
0.327637
0.341916
0.355114
0.367025
0.377440
0.386226
0.393332
0.398744
0.402543
0.404841
0.405765
0.405489
0.404157
0.401923
0.398917
0.395237
0.390931
0.386066
0.380623
0.374647
0.368077
0.360949
0.353260
0.345046
0.336374
0.327315
0.317971
0.308475
0.298929
0.289477
0.280199
0.271175
0.262448
0.253994
0.245780
0.237718
0.229689
0.221551
0.213170
0.204401
0.195142
0.185304
0.174878
0.163867
0.152367
0.140503
0.128458
0.116466
0.104741
0.093539
0.083081
0.073556
0.065103
0.057821
0.051713
0.046751
0.042803
0.039726
0.037303
0.035309
0.033539
0.031771
0.029834
0.027617
0.025028
0.022089
0.018816
0.015327
0.011744
0.008187
0.004836
0.001777
-0.000915
-0.003223
-0.005157
-0.006839
-0.008398
-0.010026
-0.011909
-0.014257
-0.017229
-0.020907
-0.025350
-0.030440
-0.036026
-0.041808
-0.047324
-0.052087
-0.055450
-0.056748
-0.055204
-0.050076
-0.040613
-0.026085
-0.005782
0.020873
0.054437
0.095359
0.144066
0.200839
0.265944
0.339549
0.421769
0.512643
0.612146
0.720143
0.836469
0.960761
1.092581
1.231311
1.376057
1.525811
1.679298
1.835006
1.991142
2.145715
2.296570
2.441327
2.577503
2.702639
2.814215
2.909857
2.987327
3.044659
3.080202
3.092694
3.081330
3.045780
2.986211
2.903326
2.798328
2.672866
2.529101
2.369488
2.196868
2.014284
1.824897
1.631995
1.438750
1.248287
1.063490
0.886956
0.720984
0.567417
0.427731
0.302915
0.193540
0.099726
0.021187
-0.042734
-0.093011
-0.130902
-0.157820
-0.175331
-0.185070
-0.188629
-0.187579
-0.183351
-0.177192
-0.170200
-0.163166
-0.156779
-0.151371
-0.147182
-0.144180
-0.142166
-0.140919
-0.140040
-0.139141
-0.137859
-0.135837
-0.132830
-0.128657
-0.123267
-0.116719
-0.109185
-0.100919
-0.092255
-0.083542
-0.075166
-0.067453
-0.060709
-0.055155
-0.050908
-0.048029
-0.046409
-0.045903
-0.046265
-0.047205
-0.048408
-0.049572
-0.050374
-0.050610
-0.050076
-0.048696
-0.046478
-0.043463
-0.039826
-0.035752
-0.031451
-0.027183
-0.023147
-0.019543
-0.016487
-0.014046
-0.012208
-0.010898
-0.009933
-0.009162
-0.008342
-0.007260
-0.005703
-0.003480
-0.000477
0.003392
0.008105
0.013628
0.019798
0.026437
0.033376
0.040316
0.047119
0.053540
0.059445
0.064745
0.069380
0.073386
0.076815
0.079781
0.082428
0.084925
0.087412
0.090060
0.092960
0.096211
0.099846
0.103859
0.108213
0.112829
0.117630
0.122534
0.127423
0.132255
0.136964
0.141530
0.145958
0.150319
0.154662
0.159092
0.163704
0.168590
0.173835
0.179457
0.185503
0.191926
0.198682
0.205645
0.212703
0.219697
0.226479
0.232900
0.238824
0.244186
0.248935
0.253082
0.256678
0.259850
0.262708
0.265450
0.268244
0.271274
0.274673
0.278573
0.283043
0.288075
0.293664
0.299711
0.306115
0.312743
0.319413
0.326037
0.332469
0.338657
0.344586
0.350271
0.355815
0.361332
0.366971
0.372905
0.379321
0.386335
0.394091
0.402620
0.411930
0.421938
0.432521
0.443515
0.454695
0.465825
0.476665
0.486996
0.496634
0.505464
0.513442
0.520573
0.526972
0.532767
0.538186
0.543457
0.548836
0.554601
0.560914
0.568001
0.575929
0.584748
0.594428
0.604858
0.615926
0.627400
0.639118
0.650843
0.662385
0.673614
0.684403
0.694730
0.704601
0.714073
0.723261
0.732262
0.741245
0.750343
0.759647
0.769252
0.779166
0.789338
0.799705
0.810102
0.820403
0.830366
0.839831
0.848593
0.856480
0.863382
0.869229
0.874015
0.877806
0.880700
0.882846
0.884466
0.885738
0.886883
0.888088
0.889485
0.891183
0.893215
0.895550
0.898095
0.900715
0.903211
0.905385
0.907003
0.907848
0.907733
0.906532
0.904156
0.900568
0.895817
0.889955
0.883137
0.875478
0.867124
0.858257
0.848937
0.839285
0.829280
0.818909
0.808100
0.796700
0.784598
0.771583
0.757519
0.742258
0.725662
0.707716
0.688391
0.667754
0.645934
0.623081
0.599404
0.575106
0.550413
0.525563
0.500705
0.476006
0.451553
0.427367
0.403466
0.379781
0.356254
0.332783
0.309304
0.285733
0.262040
0.238235
0.214369
0.190524
0.166865
0.143546
0.120749
0.098671
0.077465
0.057279
0.038176
0.020209
0.003335
-0.012532
-0.027525
-0.041825
-0.055631
-0.069123
-0.082487
-0.095895
-0.109384
-0.123052
-0.136808
-0.150595
-0.164248
-0.177574
-0.190360
-0.202376
-0.213410
-0.223298
-0.231894
-0.239139
-0.245037
-0.249655
-0.253120
-0.255626
-0.257385
-0.258633
-0.259619
-0.260551
-0.261631
-0.262981
-0.264696
-0.266773
-0.269194
-0.271845
-0.274591
-0.277296
-0.279765
-0.281855
-0.283416
-0.284363
-0.284630
-0.284223
-0.283195
-0.281641
-0.279664
-0.277439
-0.275102
-0.272790
-0.270648
-0.268716
-0.267068
-0.265668
-0.264473
-0.263380
-0.262290
-0.261074
-0.259611
-0.257785
-0.255566
-0.252925
-0.249888
-0.246570
-0.243056
-0.239523
-0.236155
-0.233110
-0.230583
-0.228656
-0.227445
-0.226936
-0.227088
-0.227770
-0.228835
-0.230041
-0.231176
-0.231977
-0.232235
-0.231750
-0.230371
-0.228066
-0.224808
-0.220703
-0.215903
-0.210596
-0.205070
-0.199549
-0.194328
-0.189620
-0.185619
-0.182458
-0.180155
-0.178728
-0.178047
-0.177972
-0.178296
-0.178762
-0.179170
-0.179282
-0.178936
-0.177989
-0.176403
-0.174149
-0.171324
-0.168032
-0.164463
-0.160792
-0.157222
-0.153951
-0.151088
-0.148755
-0.146998
-0.145793
-0.145107
-0.144788
-0.144703
-0.144682
-0.144534
-0.144127
-0.143332
-0.142058
-0.140307
-0.138069
-0.135425
-0.132517
-0.129460
-0.126458
-0.123657
-0.121220
-0.119276
-0.117915
-0.117160
-0.117008
-0.117377
-0.118149
-0.119152
-0.120217
-0.121173
-0.121829
-0.122061
-0.121760
-0.120877
-0.119386
-0.117360
-0.114889
-0.112115
-0.109209
-0.106345
-0.103678
-0.101360
-0.099443
-0.098032
-0.097073
-0.096526
-0.096317
-0.096302
-0.096335
-0.096278
-0.095966
-0.095341
-0.094310
-0.092860
-0.091070
-0.088987
-0.086783
-0.084604
-0.082610
-0.080988
-0.079846
-0.079332
-0.079463
-0.080283
-0.081720
-0.083672
-0.086011
-0.088528
-0.091077
-0.093420
-0.095458
-0.097028
-0.098089
-0.098607
-0.098619
-0.098236
-0.097558
-0.096789
-0.096065
-0.095563
-0.095433
-0.095718
-0.096518
-0.097760
-0.099423
-0.101365
-0.103408
-0.105408
-0.107124
-0.108422
-0.109152
-0.109223
-0.108632
-0.107385
-0.105595
-0.103427
-0.101049
-0.098721
-0.096647
-0.095061
-0.094126
-0.093949
-0.094603
-0.096057
-0.098222
-0.100969
-0.104088
-0.107349
-0.110500
-0.113316
-0.115591
-0.117160
-0.117924
-0.117860
-0.116994
-0.115433
-0.113308
-0.110843
-0.108250
-0.105728
-0.103519
-0.101763
-0.100577
-0.100054
-0.100174
-0.100894
-0.102119
-0.103666
-0.105356
-0.107041
-0.108482
-0.109575
-0.110187
-0.110235
-0.109721
-0.108660
-0.107151
-0.105300
-0.103277
-0.101224
-0.099254
-0.097538
-0.096115
-0.095042
-0.094310
-0.093858
-0.093598
-0.093392
-0.093118
-0.092621
-0.091817
-0.090593
-0.088937
-0.086826
-0.084350
-0.081558
-0.078645
-0.075758
-0.073069
-0.070745
-0.068898
-0.067659
-0.067050
-0.067083
-0.067704
-0.068778
-0.070181
-0.071704
-0.073171
-0.074434
-0.075304
-0.075699
-0.075577
-0.074902
-0.073764
-0.072261
-0.070550
-0.068811
-0.067238
-0.065997
-0.065262
-0.065118
-0.065630
-0.066802
-0.068542
-0.070777
-0.073289
-0.075926
-0.078483
-0.080758
-0.082630
-0.083952
-0.084684
-0.084833
-0.084443
-0.083650
-0.082576
-0.081446
-0.080405
-0.079636
-0.079327
-0.079519
-0.080294
-0.081631
-0.083445
-0.085615
-0.087982
-0.090336
-0.092495
-0.094256
-0.095481
