0.000999999999998707
-0.436729490168753
-0.426366442431226
-0.414729490168752
-0.403468304511145
-0.393000000000000
-0.383468304511145
-0.375729490168751
-0.370366442431224
-0.367729490168752
-0.368999999999998
-0.373270509831250
-0.380633557568774
-0.387270509831248
-0.391531695488854
-0.394000000000000
-0.395531695488855
-0.396270509831249
-0.392633557568775
-0.384270509831248
-0.373000000000000
-0.363729490168752
-0.354366442431227
-0.347729490168751
-0.340468304511145
-0.335000000000000
-0.332468304511146
-0.335729490168751
-0.341366442431226
-0.348729490168751
-0.356999999999998
-0.368270509831249
-0.381633557568773
-0.391270509831249
-0.396531695488855
-0.400000000000000
-0.399531695488855
-0.395270509831249
-0.385633557568774
-0.374270509831249
-0.358999999999999
-0.346729490168753
-0.334366442431227
-0.324729490168752
-0.317468304511146
-0.316000000000000
-0.316468304511145
-0.323729490168752
-0.333366442431225
-0.344729490168751
-0.354000000000001
-0.363270509831249
-0.374633557568775
-0.381270509831249
-0.382531695488854
-0.379000000000000
-0.370531695488855
-0.364270509831248
-0.355633557568775
-0.345270509831250
-0.332000000000000
-0.321729490168752
-0.314366442431226
-0.311729490168752
-0.309468304511146
-0.310000000000000
-0.313468304511145
-0.322729490168752
-0.332366442431225
-0.341729490168752
-0.350000000000000
-0.357270509831246
-0.365633557568775
-0.369270509831248
-0.366531695488855
-0.359000000000000
-0.349531695488855
-0.341270509831248
-0.330633557568775
-0.318270509831247
-0.305000000000000
-0.292729490168752
-0.287366442431227
-0.283729490168753
-0.282468304511145
-0.282000000000000
-0.285468304511146
-0.292729490168752
-0.300366442431226
-0.306729490168751
-0.314999999999999
-0.325270509831249
-0.334633557568774
-0.342270509831247
-0.344531695488855
-0.348000000000000
-0.350531695488855
-0.353270509831249
-0.353633557568776
-0.349270509831249
-0.344000000000001
-0.340729490168751
-0.336366442431227
-0.333729490168752
-0.327468304511146
-0.322000000000000
-0.320468304511145
-0.319729490168751
-0.319366442431225
-0.321729490168751
-0.326000000000000
-0.336270509831248
-0.345633557568774
-0.353270509831249
-0.360531695488855
-0.367000000000000
-0.376531695488855
-0.380270509831250
-0.378633557568774
-0.375270509831250
-0.368999999999998
-0.365729490168752
-0.360366442431228
-0.352729490168752
-0.344468304511146
-0.342000000000000
-0.345468304511145
-0.350729490168752
-0.356366442431226
-0.366729490168750
-0.381000000000000
-0.401270509831248
-0.419633557568775
-0.431270509831249
-0.439531695488855
-0.444000000000000
-0.447531695488855
-0.444270509831248
-0.433633557568774
-0.419270509831250
-0.405999999999999
-0.397729490168753
-0.385366442431226
-0.374729490168753
-0.367468304511145
-0.368000000000000
-0.373468304511145
-0.379729490168752
-0.385366442431226
-0.393729490168751
-0.404999999999999
-0.414270509831249
-0.419633557568774
-0.419270509831248
-0.416531695488855
-0.412000000000000
-0.403531695488855
-0.391270509831249
-0.374633557568776
-0.360270509831248
-0.347000000000001
-0.332729490168750
-0.317366442431226
-0.306729490168753
-0.299468304511146
-0.301000000000000
-0.301468304511145
-0.303729490168751
-0.309366442431226
-0.318729490168752
-0.330999999999998
-0.339270509831248
-0.344633557568774
-0.348270509831248
-0.349531695488855
-0.349000000000000
-0.341531695488855
-0.331270509831249
-0.319633557568774
-0.310270509831248
-0.300000000000002
-0.287729490168751
-0.276366442431227
-0.270729490168751
-0.270468304511146
-0.271000000000000
-0.271468304511145
-0.273729490168751
-0.278366442431226
-0.284729490168751
-0.291999999999999
-0.298270509831248
-0.301633557568773
-0.306270509831248
-0.306531695488855
-0.308000000000000
-0.307531695488854
-0.305270509831249
-0.302633557568774
-0.299270509831249
-0.297999999999999
-0.294729490168751
-0.291366442431224
-0.287729490168752
-0.287468304511146
-0.288000000000000
-0.287468304511145
-0.285729490168753
-0.285366442431225
-0.285729490168751
-0.287999999999999
-0.289270509831247
-0.288633557568774
-0.286270509831248
-0.281531695488854
-0.275000000000000
-0.265531695488855
-0.250270509831249
-0.230633557568775
-0.211270509831248
-0.188000000000000
-0.163729490168753
-0.137366442431225
-0.111729490168752
-0.0914683045111453
-0.0730000000000000
-0.0564683045111458
-0.0457294901687521
-0.0363664424312249
-0.0327294901687534
-0.0309999999999981
-0.0302705098312463
-0.0286335575687734
-0.0232705098312476
-0.0155316954888546
-0.00600000000000000
0.00846830451114569
0.0287294901687509
0.0513664424312246
0.0737294901687514
0.0979999999999995
0.124270509831249
0.148633557568775
0.168270509831248
0.182531695488855
0.191000000000000
0.196531695488854
0.197270509831249
0.194633557568773
0.182270509831249
0.170000000000001
0.159729490168753
0.149366442431227
0.140729490168752
0.130468304511146
0.127000000000000
0.131468304511146
0.136729490168751
0.140366442431225
0.142729490168751
0.149000000000001
0.157270509831249
0.162633557568774
0.159270509831249
0.153531695488854
0.146000000000000
0.137531695488855
0.124270509831250
0.105633557568773
0.0852705098312495
0.0659999999999998
0.0507294901687534
0.0353664424312276
0.0187294901687521
0.00746830451114579
0
-0.000531695488854709
-0.00227050983124784
-0.00663355756877506
-0.00927050983124980
-0.00900000000000012
-0.00972949016875204
-0.0153664424312251
-0.0267294901687513
-0.0394683045111454
-0.0520000000000000
-0.0644683045111452
-0.0817294901687520
-0.101366442431226
-0.119729490168750
-0.134000000000001
-0.148270509831248
-0.161633557568775
-0.176270509831248
-0.186531695488855
-0.191000000000000
-0.195531695488855
-0.199270509831248
-0.204633557568776
-0.206270509831249
-0.203000000000001
-0.202729490168751
-0.202366442431226
-0.205729490168752
-0.206468304511145
-0.206000000000000
-0.209468304511144
-0.211729490168752
-0.217366442431227
-0.222729490168753
-0.227999999999999
-0.235270509831249
-0.242633557568773
-0.253270509831247
-0.258531695488854
-0.261000000000000
-0.262531695488855
-0.264270509831249
-0.263633557568775
-0.256270509831249
-0.247000000000001
-0.237729490168752
-0.232366442431226
-0.226729490168752
-0.219468304511145
-0.218000000000000
-0.221468304511145
-0.231729490168751
-0.243366442431225
-0.257729490168750
-0.273999999999998
-0.294270509831250
-0.313633557568774
-0.326270509831248
-0.334531695488854
-0.338000000000000
-0.337531695488854
-0.327270509831248
-0.305633557568775
-0.273270509831250
-0.236000000000002
-0.189729490168751
-0.136366442431225
-0.0777294901687514
-0.0124683045111454
0.0600000000000000
0.139531695488855
0.222270509831250
0.310633557568774
0.410270509831249
0.517000000000001
0.632729490168753
0.752366442431226
0.884729490168752
1.03046830451115
1.18300000000000
1.34346830451115
1.50772949016875
1.67836644243123
1.85272949016875
2.02300000000000
2.19027050983125
2.34863355756878
2.49627050983125
2.63353169548885
2.74600000000000
2.84053169548886
2.90927050983125
2.95363355756878
2.96727050983125
2.95100000000000
2.91172949016875
2.84636644243123
2.75672949016875
2.65046830451115
2.52900000000000
2.39346830451115
2.24372949016875
2.08536644243123
1.92272949016875
1.75600000000000
1.58727050983125
1.41563355756877
1.24727050983125
1.08153169548886
0.924000000000000
0.773531695488855
0.627270509831249
0.494633557568775
0.375270509831250
0.270000000000002
0.172729490168751
0.0873664424312266
0.0167294901687524
-0.0405316954888541
-0.0880000000000000
-0.130531695488854
-0.160270509831248
-0.181633557568774
-0.195270509831249
-0.203999999999999
-0.209729490168751
-0.209366442431226
-0.203729490168752
-0.196468304511146
-0.188000000000000
-0.181468304511146
-0.171729490168750
-0.160366442431226
-0.150729490168751
-0.147000000000003
-0.144270509831247
-0.141633557568773
-0.135270509831248
-0.130531695488854
-0.127000000000000
-0.122531695488855
-0.114270509831247
-0.0996335575687732
-0.0832705098312492
-0.0660000000000012
-0.0517294901687531
-0.0323664424312274
-0.0107294901687510
0.00753169548885482
0.0210000000000000
0.0285316954888546
0.0352705098312477
0.0416335575687735
0.0422705098312512
0.0390000000000016
0.0327294901687534
0.0293664424312249
0.0317294901687532
0.0324683045111453
0.0330000000000000
0.0364683045111453
0.0477294901687511
0.0643664424312249
0.0817294901687501
0.0970000000000015
0.112270509831250
0.126633557568775
0.141270509831249
0.148531695488855
0.149000000000000
0.146531695488856
0.142270509831249
0.133633557568775
0.121270509831247
0.106000000000002
0.0957294901687508
0.0893664424312254
0.0867294901687515
0.0864683045111444
0.0870000000000000
0.0974683045111451
0.113729490168751
0.131366442431227
0.150729490168750
0.167999999999997
0.185270509831249
0.202633557568774
0.215270509831248
0.222531695488854
0.225000000000000
0.224531695488854
0.220270509831247
0.212633557568773
0.204270509831248
0.196000000000003
0.193729490168751
0.194366442431229
0.196729490168754
0.201468304511146
0.210000000000000
0.225468304511145
0.243729490168750
0.261366442431227
0.278729490168752
0.294000000000000
0.308270509831248
0.321633557568774
0.331270509831248
0.336531695488854
0.340000000000000
0.344531695488855
0.346270509831250
0.345633557568774
0.344270509831248
0.346000000000000
0.347729490168752
0.353366442431224
0.355729490168750
0.357468304511146
0.362000000000000
0.367468304511146
0.375729490168752
0.384366442431223
0.392729490168748
0.400000000000000
0.409270509831248
0.419633557568773
0.428270509831248
0.436531695488854
0.442000000000000
0.448531695488854
0.452270509831248
0.455633557568774
0.453270509831246
0.450999999999997
0.448729490168753
0.446366442431227
0.443729490168753
0.439468304511146
0.438000000000000
0.441468304511146
0.447729490168752
0.458366442431226
0.470729490168754
0.485999999999999
0.504270509831247
0.522633557568776
0.541270509831249
0.555531695488854
0.568000000000000
0.578531695488855
0.584270509831249
0.586633557568775
0.585270509831249
0.582000000000001
0.577729490168753
0.573366442431225
0.572729490168751
0.572468304511145
0.577000000000000
0.587468304511146
0.601729490168751
0.620366442431225
0.636729490168750
0.656999999999998
0.679270509831247
0.702633557568772
0.723270509831249
0.737531695488855
0.748000000000000
0.757531695488855
0.763270509831249
0.762633557568773
0.760270509831247
0.756999999999999
0.758729490168751
0.759366442431228
0.759729490168752
0.764468304511145
0.773000000000000
0.790468304511145
0.808729490168751
0.828366442431227
0.848729490168750
0.872000000000001
0.897270509831249
0.917633557568775
0.932270509831248
0.943531695488855
0.955000000000000
0.962531695488855
0.965270509831249
0.962633557568776
0.960270509831251
0.960999999999999
0.964729490168751
0.968366442431226
0.973729490168752
0.984468304511144
1.00300000000000
1.02446830451115
1.04572949016875
1.06536644243122
1.08672949016875
1.11100000000000
1.13327050983125
1.15063355756877
1.16227050983125
1.17053169548886
1.18200000000000
1.18953169548886
1.19227050983125
1.19263355756877
1.19327050983125
1.19900000000000
1.20372949016875
1.20736644243123
1.20872949016875
1.21346830451115
1.22200000000000
1.22946830451114
1.23572949016875
1.23936644243122
1.24772949016875
1.25800000000000
1.26627050983125
1.27363355756878
1.27927050983125
1.28553169548886
1.29200000000000
1.29253169548886
1.28927050983125
1.28563355756877
1.27827050983125
1.26800000000000
1.25372949016875
1.23636644243123
1.22072949016875
1.20546830451115
1.19100000000000
1.17646830451115
1.16172949016875
1.15136644243123
1.14372949016875
1.13900000000000
1.13227050983125
1.12363355756877
1.11827050983125
1.10953169548885
1.09600000000000
1.07653169548885
1.05027050983125
1.02463355756877
0.994270509831249
0.958000000000001
0.919729490168750
0.881366442431227
0.845729490168753
0.814468304511146
0.783000000000000
0.753468304511145
0.729729490168751
0.710366442431225
0.695729490168754
0.679999999999999
0.664270509831250
0.646633557568775
0.629270509831249
0.611531695488855
0.588000000000000
0.561531695488855
0.530270509831251
0.497633557568775
0.463270509831247
0.428000000000002
0.396729490168754
0.362366442431225
0.332729490168751
0.308468304511145
0.290000000000000
0.276468304511146
0.264729490168751
0.256366442431227
0.254729490168753
0.252999999999998
0.250270509831246
0.242633557568775
0.234270509831248
0.226531695488854
0.211000000000000
0.189531695488854
0.164270509831247
0.136633557568776
0.111270509831247
0.0869999999999991
0.0617294901687511
0.0373664424312257
0.0177294901687517
0.00646830451114663
0.00100000000000000
-0.00353169548885502
-0.00627050983124942
-0.00763355756877587
-0.00627050983124751
-0.00399999999999941
-0.00672949016875462
-0.00936644243122594
-0.0137294901687499
-0.0184683045111446
-0.0240000000000000
-0.0334683045111449
-0.0427294901687504
-0.0503664424312239
-0.0557294901687489
-0.0610000000000003
-0.0672705098312483
-0.0716335575687738
-0.0722705098312479
-0.0715316954888542
-0.0710000000000000
-0.0715316954888542
-0.0712705098312478
-0.0646335575687736
-0.0592705098312481
-0.0560000000000001
-0.0547294901687520
-0.0523664424312265
-0.0447294901687523
-0.0424683045111459
-0.0400000000000000
-0.0404683045111458
-0.0387294901687520
-0.0373664424312261
-0.0407294901687516
-0.0460000000000030
-0.0562705098312477
-0.0636335575687733
-0.0692705098312496
-0.0785316954888551
-0.0870000000000000
-0.0955316954888554
-0.0952705098312482
-0.0906335575687742
-0.0862705098312487
-0.0820000000000007
-0.0757294901687526
-0.0643664424312270
-0.0487294901687506
-0.0394683045111450
-0.0380000000000000
-0.0384683045111455
-0.0387294901687516
-0.0413664424312256
-0.0497294901687477
-0.0619999999999990
-0.0762705098312503
-0.0866335575687728
-0.0942705098312472
-0.100531695488855
-0.106000000000000
-0.105531695488855
-0.0952705098312486
-0.0836335575687747
-0.0702705098312494
-0.0570000000000014
-0.0397294901687532
-0.0213664424312275
-0.00772949016875303
0.000531695488854782
0.000999999999999997
-0.000468304511144286
-0.00372949016875125
-0.0133664424312278
-0.0257294901687536
-0.0400000000000017
-0.0532705098312497
-0.0646335575687750
-0.0742705098312488
-0.0795316954888547
-0.0820000000000000
-0.0785316954888558
-0.0692705098312489
-0.0576335575687725
-0.0432705098312500
-0.0280000000000020
-0.0127294901687506
0.000633557568774729
0.00927050983124859
0.0135316954888546
0.0130000000000000
0.00953169548885381
0.00227050983124712
-0.00836644243122453
-0.0197294901687497
-0.0319999999999977
-0.0422705098312491
-0.0486335575687745
-0.0532705098312464
-0.0525316954888545
-0.0500000000000000
-0.0435316954888550
-0.0332705098312493
-0.0266335575687730
-0.0202705098312473
-0.0129999999999992
-0.00572949016875445
0.000633557568774205
0.00227050983124821
0.00253169548885438
0
-0.00246830451114494
-0.00672949016875049
-0.0123664424312268
-0.0177294901687524
-0.0219999999999970
-0.0252705098312485
-0.0276335575687767
-0.0292705098312500
-0.0295316954888543
-0.0290000000000000
-0.0255316954888552
-0.0232705098312497
-0.0196335575687763
-0.0172705098312480
-0.0149999999999999
-0.00972949016875182
-0.00636644243122632
-0.00172949016875217
-0.000468304511145819
0.000999999999999997
0.00253169548885421
0.00427050983124788
0.00363355756877375
-0.00372949016875174
-0.0109999999999998
-0.0162705098312479
-0.0226335575687734
-0.0292705098312476
-0.0365316954888541
-0.0410000000000000
-0.0415316954888543
-0.0382705098312481
-0.0326335575687740
-0.0272705098312453
-0.0170000000000005
-0.00272949016875244
0.0116335575687732
0.0242705098312495
0.0315316954888540
0.0360000000000000
0.0395316954888544
0.0392705098312483
0.0336335575687743
0.0222705098312489
0.00899999999999744
-0.00427050983124726
-0.0166335575687757
-0.0282705098312493
-0.0385316954888549
-0.0440000000000000
-0.0415316954888545
-0.0362705098312505
-0.0316335575687773
-0.0212705098312492
-0.00899999999999777
0.00827050983124695
0.0186335575687726
0.0272705098312491
0.0315316954888548
0.0340000000000000
0.0345316954888546
0.0262705098312466
0.0146335575687748
0.00127050983124949
-0.00799999999999850
-0.0202705098312466
-0.0326335575687724
-0.0452705098312489
-0.0485316954888547
-0.0470000000000000
-0.0445316954888547
-0.0362705098312468
-0.0276335575687723
-0.0102705098312498
0.00900000000000159
0.0242705098312496
0.0346335575687749
0.0412705098312467
0.0465316954888546
0.0470000000000000
0.0415316954888548
0.0312705098312490
0.0186335575687753
0.00627050983125011
-0.00400000000000127
-0.0152705098312493
-0.0256335575687746
-0.0322705098312485
-0.0325316954888556
-0.0260000000000000
-0.0205316954888549
-0.0142705098312492
-0.00563355756877559
0.00572949016874958
0.0180000000000009
0.0252705098312490
0.0306335575687744
0.0332705098312483
0.0345316954888555
0.0360000000000000
0.0335316954888550
0.0292705098312474
0.0256335575687703
0.0212705098312507
0.0190000000000028
0.0167294901687513
0.0143664424312259
0.0137294901687519
0.0144683045111457
0.0180000000000000
0.0204683045111449
0.0257294901687524
0.0313664424312266
0.0367294901687522
0.0440000000000003
0.0542705098312516
0.0656335575687738
0.0742705098312479
0.0805316954888542
0.0890000000000000
0.0955316954888552
0.100270509831250
0.0986335575687736
0.0962705098312481
0.0910000000000000
0.0847294901687520
0.0753664424312264
0.0657294901687523
0.0584683045111448
0.0500000000000000
0.0474683045111457
0.0457294901687500
0.0473664424312261
0.0537294901687516
0.0619999999999962
0.0742705098312477
0.0876335575687761
0.0982705098312476
0.110531695488854
0.119000000000000
0.126531695488854
0.128270509831248
0.123633557568774
0.119270509831249
0.110000000000004
0.100729490168753
0.0883664424312270
0.0787294901687526
0.0724683045111461
0.0700000000000000
0.0714683045111456
0.0747294901687517
0.0823664424312256
0.0957294901687542
0.111000000000002
0.126270509831250
0.135633557568776
0.145270509831247
0.153531695488854
0.158000000000000
0.156531695488856
0.147270509831251
0.136633557568775
0.127270509831246
0.115000000000001
0.0977294901687532
0.0813664424312247
0.0707294901687510
0.0664683045111452
0.0640000000000000
0.0634683045111454
0.0657294901687513
0.0743664424312251
0.0917294901687504
0.105999999999998
0.116270509831247
0.124633557568775
0.133270509831249
0.140531695488854
0.142000000000000
0.135531695488854
0.127270509831247
0.121633557568775
0.117270509831247
0.110999999999999
0.102729490168754
0.100366442431228
0.105729490168751
0.114468304511145
0.124000000000000
0.134468304511145
0.147729490168751
0.167366442431225
0.186729490168753
0.202000000000001
0.211270509831246
0.220633557568775
0.230270509831250
0.235531695488854
0.238000000000000
0.235531695488855
0.235270509831249
0.238633557568776
0.239270509831251
0.238999999999999
0.237729490168751
0.242366442431226
0.251729490168752
0.260468304511146
0.269000000000000
0.276468304511146
0.290729490168751
0.304366442431224
0.317729490168749
0.330000000000000
0.342270509831249
0.357633557568774
0.372270509831248
0.384531695488854
0.393000000000000
0.402531695488854
0.412270509831248
0.419633557568774
0.422270509831248
0.420000000000000
0.418729490168752
0.416366442431229
0.413729490168752
0.409468304511145
0.405000000000000
0.403468304511145
0.405729490168752
0.411366442431226
0.415729490168752
0.423000000000000
0.432270509831251
0.441633557568773
0.451270509831250
0.453531695488855
0.452000000000000
0.450531695488855
0.444270509831248
0.431633557568774
0.415270509831252
0.392000000000001
0.369729490168749
0.349366442431224
0.329729490168753
0.312468304511145
0.297000000000000
0.284468304511146
0.278729490168752
0.276366442431226
0.279729490168748
0.280999999999999
0.283270509831247
0.285633557568773
0.287270509831247
0.285531695488855
0.278000000000000
0.267531695488856
0.252270509831248
0.233633557568772
0.213270509831246
0.188000000000001
0.163729490168753
0.143366442431227
0.126729490168753
0.112468304511145
0.0990000000000000
0.0924683045111444
0.0947294901687514
0.100366442431228
0.108729490168751
0.112999999999999
0.119270509831250
0.126633557568775
0.130270509831249
0.126531695488855
0.118000000000000
0.105531695488855
0.0932705098312488
0.0806335575687750
0.0632705098312498
0.0470000000000018
0.0307294901687504
0.0213664424312251
0.0157294901687513
0.0134683045111454
0.0120000000000000
0.0174683045111452
0.0257294901687510
0.0363664424312275
0.0427294901687499
0.0499999999999979
0.0572705098312461
0.0626335575687746
0.0652705098312485
0.0595316954888546
0.0550000000000000
0.0495316954888549
0.0422705098312492
0.0326335575687728
0.0182705098312471
0.00599999999999903
-0.00327050983124899
-0.00963355756877437
-0.0162705098312483
-0.0235316954888534
-0.0280000000000000
-0.0275316954888539
-0.0222705098312494
-0.0166335575687758
-0.0102705098312475
-0.000999999999999353
0.0212705098312487
0.0446335575687741
0.0692705098312481
0.0985316954888544
0.136000000000000
0.184531695488855
0.233270509831250
0.289633557568776
0.352270509831248
0.425000000000000
0.507729490168752
0.598366442431226
0.699729490168750
0.805468304511146
0.923000000000000
1.05446830451115
1.19672949016875
1.34436644243123
1.49672949016875
1.65600000000000
1.82427050983124
1.98963355756877
2.14827050983125
2.30053169548885
2.44600000000000
2.58553169548885
2.71027050983125
2.81563355756877
2.90227050983125
2.97600000000000
3.03672949016875
3.07136644243122
3.07972949016875
3.06546830451115
3.03600000000000
2.98346830451115
2.90872949016875
2.81236644243122
2.70572949016875
2.58700000000000
2.45227050983125
2.30463355756877
2.14627050983125
1.98453169548886
1.81800000000000
1.64653169548886
1.47227050983125
1.29763355756877
1.12927050983125
0.965000000000001
0.807729490168753
0.659366442431227
0.523729490168751
0.400468304511145
0.292000000000000
0.198468304511145
0.120729490168753
0.0563664424312281
0.00572949016875070
-0.0340000000000013
-0.0697294901687532
-0.0983664424312275
-0.124729490168753
-0.145468304511145
-0.165000000000000
-0.185468304511145
-0.204729490168751
-0.223366442431225
-0.236729490168750
-0.247000000000002
-0.253270509831250
-0.254633557568775
-0.252270509831249
-0.242531695488855
-0.224000000000000
-0.205531695488855
-0.184270509831249
-0.162633557568775
-0.140270509831250
-0.116999999999999
-0.0957294901687505
-0.0813664424312252
-0.0677294901687514
-0.0574683045111443
-0.0480000000000000
-0.0424683045111452
-0.0367294901687509
-0.0333664424312273
-0.0317294901687498
-0.0259999999999977
-0.0222705098312492
-0.0176335575687745
-0.0152705098312484
-0.0115316954888545
-0.00500000000000000
-0.000531695488854945
0.00472949016875272
0.00836644243122708
0.0147294901687527
0.0229999999999974
0.0322705098312489
0.0376335575687743
0.0432705098312503
0.0515316954888544
0.0590000000000000
0.0645316954888550
0.0652705098312495
0.0636335575687732
0.0602705098312443
0.0559999999999995
0.0497294901687515
0.0383664424312288
0.0277294901687519
0.0184683045111457
0.0140000000000000
0.00946830451114591
0.00672949016875033
0.0103664424312266
0.0187294901687489
0.0299999999999968
0.0432705098312482
0.0536335575687765
0.0662705098312499
0.0785316954888542
0.0880000000000000
0.0925316954888553
0.0922705098312479
0.0876335575687765
0.0862705098312482
0.0809999999999967
0.0737294901687521
0.0633664424312265
0.0567294901687523
0.0584683045111459
0.0610000000000000
0.0634683045111457
0.0707294901687540
0.0833664424312260
0.101729490168748
0.120000000000000
0.134270509831248
0.146633557568773
0.161270509831250
0.174531695488854
0.180000000000000
0.179531695488855
0.177270509831250
0.172633557568774
0.167270509831246
0.155999999999997
0.142729490168753
0.133366442431224
0.129729490168753
0.129468304511146
0.130000000000000
0.132468304511146
0.144729490168754
0.162366442431226
0.180729490168751
0.198999999999995
0.212270509831247
0.227633557568775
0.240270509831249
0.247531695488856
0.251000000000000
0.246531695488854
0.242270509831249
0.237633557568775
0.230270509831249
0.220999999999998
0.214729490168750
0.213366442431228
0.215729490168755
0.220468304511146
0.227000000000000
0.236468304511145
0.248729490168753
0.265366442431231
0.279729490168754
0.291999999999998
0.301270509831246
0.311633557568772
0.319270509831249
0.324531695488855
0.328000000000000
0.328531695488855
0.329270509831251
0.329633557568775
0.328270509831250
0.328999999999999
0.330729490168748
0.333366442431225
0.337729490168751
0.342468304511145
0.349000000000000
0.358468304511145
0.368729490168751
0.381366442431227
0.394729490168750
0.407000000000001
0.420270509831246
0.434633557568774
0.448270509831248
0.463531695488856
0.476000000000000
0.485531695488854
0.496270509831247
0.504633557568776
0.513270509831251
0.516999999999999
0.520729490168751
0.524366442431223
0.527729490168752
0.531468304511147
0.536000000000000
0.541468304511145
0.553729490168752
0.567366442431230
0.584729490168756
0.602000000000000
0.623270509831245
0.646633557568774
0.668270509831248
0.690531695488854
0.705000000000000
0.717531695488855
0.728270509831248
0.737633557568776
0.741270509831251
0.741000000000000
0.739729490168749
0.742366442431224
0.745729490168752
0.752468304511145
0.759000000000000
0.770468304511145
0.788729490168750
0.810366442431226
0.833729490168755
0.855000000000000
0.878270509831248
0.904633557568771
0.927270509831248
0.945531695488855
0.955000000000000
0.963531695488853
0.972270509831248
0.974633557568777
0.971270509831252
0.963000000000001
0.957729490168753
0.957366442431224
0.955729490168751
0.956468304511145
0.959000000000000
0.969468304511145
0.985729490168752
1.00336644243123
1.02072949016875
1.03900000000000
1.05827050983125
1.07563355756877
1.08727050983125
1.09153169548885
1.09200000000000
1.08953169548885
1.08327050983125
1.07163355756877
1.05427050983125
1.04000000000000
1.02972949016875
1.01836644243122
1.00872949016875
0.999468304511145
0.996000000000000
0.995468304511145
0.994729490168749
0.992366442431225
0.988729490168754
0.985000000000002
0.981270509831247
0.973633557568775
0.960270509831247
0.942531695488855
0.925000000000000
0.910531695488854
0.889270509831245
0.864633557568772
0.839270509831250
0.817000000000005
0.797729490168754
0.774366442431225
0.749729490168751
0.723468304511144
0.702000000000000
0.680468304511144
0.657729490168751
0.634366442431225
0.613729490168753
0.593000000000005
0.573270509831249
0.552633557568775
0.530270509831247
0.508531695488854
0.484000000000000
0.461531695488855
0.436270509831247
0.406633557568776
0.377270509831247
0.346000000000003
0.317729490168751
0.285366442431226
0.253729490168750
0.223468304511145
0.194000000000000
0.169468304511145
0.146729490168751
0.127366442431224
0.111729490168752
0.0980000000000005
0.0892705098312518
0.0806335575687740
0.0712705098312501
0.0625316954888543
0.0500000000000000
0.0365316954888541
0.0202705098312456
-0.00136644243122934
-0.0237294901687521
-0.0459999999999968
-0.0692705098312450
-0.0926335575687738
-0.113270509831248
-0.131531695488855
-0.144000000000000
-0.155531695488854
-0.160270509831250
-0.162633557568776
-0.161270509831248
-0.157999999999997
-0.153729490168749
-0.149366442431227
-0.146729490168750
-0.147468304511147
-0.149000000000000
-0.154468304511145
-0.163729490168752
-0.180366442431229
-0.198729490168752
-0.217000000000000
-0.234270509831244
-0.251633557568773
-0.268270509831250
-0.279531695488855
-0.286000000000000
-0.285531695488854
-0.280270509831248
-0.273633557568777
-0.264270509831252
-0.252000000000001
-0.239729490168749
-0.232366442431224
-0.228729490168753
-0.228468304511146
-0.229000000000000
-0.234468304511146
-0.245729490168752
-0.259366442431228
-0.270729490168757
-0.278999999999999
-0.284270509831247
-0.290633557568773
-0.295270509831247
-0.292531695488855
-0.284000000000000
-0.274531695488855
-0.265270509831249
-0.255633557568778
-0.245270509831249
-0.232999999999998
-0.223729490168750
-0.219366442431222
-0.217729490168751
-0.215468304511145
-0.214000000000000
-0.213468304511144
-0.219729490168751
-0.226366442431228
-0.228729490168754
-0.229999999999998
-0.231270509831250
-0.236633557568772
-0.239270509831249
-0.239531695488855
-0.235000000000000
-0.232531695488854
-0.232270509831247
-0.229633557568775
-0.222270509831253
-0.216000000000002
-0.212729490168751
-0.209366442431225
-0.204729490168749
-0.196468304511145
-0.192000000000000
-0.190468304511145
-0.191729490168751
-0.194366442431227
-0.193729490168756
-0.198000000000001
-0.203270509831246
-0.213633557568772
-0.221270509831246
-0.226531695488854
-0.232000000000000
-0.234531695488854
-0.236270509831249
-0.231633557568773
-0.223270509831251
-0.214000000000003
-0.205729490168751
-0.198366442431223
-0.186729490168750
-0.174468304511146
-0.168000000000000
-0.167468304511144
-0.169729490168750
-0.173366442431224
-0.177729490168752
-0.185000000000004
-0.196270509831248
-0.206633557568774
-0.214270509831248
-0.217531695488854
-0.221000000000000
-0.221531695488854
-0.216270509831248
-0.207633557568774
-0.194270509831255
-0.184000000000003
-0.173729490168752
-0.159366442431226
-0.143729490168750
-0.132468304511145
-0.130000000000000
-0.131468304511145
-0.133729490168750
-0.140366442431226
-0.151729490168755
-0.165000000000003
-0.179270509831248
-0.190633557568773
-0.199270509831246
-0.205531695488854
-0.207000000000000
-0.204531695488854
-0.197270509831246
-0.185633557568774
-0.172270509831249
-0.159000000000004
-0.148729490168753
-0.139366442431224
-0.129729490168751
-0.126468304511144
-0.129000000000000
-0.136468304511146
-0.148729490168750
-0.159366442431223
-0.173729490168751
-0.186000000000003
-0.200270509831250
-0.209633557568773
-0.215270509831249
-0.217531695488854
-0.214000000000000
-0.211531695488855
-0.203270509831246
-0.194633557568772
-0.185270509831249
-0.178000000000005
-0.172729490168756
-0.168366442431227
-0.165729490168751
-0.164468304511145
-0.167000000000000
-0.170468304511145
-0.175729490168749
-0.181366442431225
-0.185729490168750
-0.189000000000002
-0.193270509831250
-0.197633557568775
-0.199270509831247
-0.198531695488854
-0.200000000000000
-0.199531695488855
-0.197270509831249
-0.192633557568772
-0.188270509831250
-0.185999999999998
-0.180729490168754
-0.173366442431225
-0.166729490168751
-0.162468304511144
-0.162000000000000
-0.161468304511145
-0.159729490168751
-0.158366442431222
-0.161729490168750
-0.171000000000001
-0.180270509831249
-0.187633557568777
-0.194270509831249
-0.202531695488856
-0.210000000000000
-0.214531695488855
-0.211270509831247
-0.207633557568770
-0.202270509831247
-0.196000000000003
-0.184729490168758
-0.171366442431228
-0.158729490168752
-0.150468304511146
-0.148000000000000
-0.144468304511145
-0.141729490168753
-0.143366442431224
-0.148729490168749
-0.162000000000001
-0.172270509831252
-0.179633557568774
-0.185270509831248
-0.193531695488854
-0.199000000000000
-0.200531695488855
-0.193270509831250
-0.184633557568773
-0.177270509831245
-0.167000000000000
-0.152729490168752
-0.134366442431229
-0.122729490168752
-0.115468304511145
-0.112000000000000
-0.109468304511146
-0.109729490168750
-0.118366442431226
-0.130729490168749
-0.143999999999997
-0.155270509831248
-0.164633557568776
-0.175270509831250
-0.184531695488855
-0.187000000000000
-0.182531695488855
-0.172270509831248
-0.158633557568771
-0.145270509831245
-0.128999999999997
-0.112729490168752
-0.101366442431230
-0.0937294901687525
-0.0924683045111460
-0.0930000000000000
-0.0984683045111467
-0.107729490168752
-0.120366442431226
-0.134729490168748
-0.145999999999999
-0.153270509831251
-0.159633557568776
-0.164270509831249
-0.165531695488854
-0.160000000000000
-0.152531695488856
-0.144270509831250
-0.136633557568774
-0.129270509831246
-0.120999999999998
-0.111729490168753
-0.107366442431225
-0.106729490168753
-0.108468304511145
-0.107000000000000
-0.108468304511145
-0.112729490168753
-0.116366442431225
-0.121729490168751
-0.122999999999995
-0.123270509831247
-0.124633557568775
-0.127270509831249
-0.127531695488856
-0.127000000000000
-0.123531695488856
-0.122270509831249
-0.119633557568775
-0.115270509831246
-0.109999999999998
-0.101729490168754
-0.0953664424312278
-0.0907294901687532
-0.0854683045111464
-0.0820000000000000
-0.0784683045111452
-0.0767294901687531
-0.0793664424312248
-0.0857294901687533
-0.0919999999999980
-0.100270509831249
-0.109633557568775
-0.119270509831251
-0.126531695488855
-0.130000000000000
-0.131531695488855
-0.130270509831251
-0.126633557568775
-0.119270509831247
-0.107999999999999
-0.0967294901687477
-0.0853664424312255
-0.0747294901687496
-0.0664683045111455
-0.0610000000000000
-0.0604683045111461
-0.0637294901687527
-0.0703664424312270
-0.0797294901687494
-0.0899999999999939
-0.103270509831246
-0.116633557568774
-0.127270509831248
-0.136531695488855
-0.141000000000000
-0.141531695488854
-0.137270509831250
-0.131633557568776
-0.122270509831248
-0.106000000000000
-0.0887294901687516
-0.0683664424312288
-0.0527294901687520
-0.0394683045111468
-0.0270000000000000
-0.0164683045111448
-0.0117294901687523
-0.0143664424312292
-0.0197294901687520
-0.0240000000000001
-0.0292705098312449
-0.0336335575687737
-0.0352705098312498
-0.0335316954888552
-0.0230000000000000
-0.00953169548885527
0.00472949016875210
0.0223664424312235
0.0437294901687485
0.0669999999999998
0.0882705098312511
0.103633557568776
0.114270509831248
0.122531695488855
0.131000000000000
0.133531695488854
0.129270509831248
0.125633557568774
0.122270509831245
0.122000000000001
0.122729490168756
0.122366442431227
0.128729490168753
0.139468304511145
0.154000000000000
0.169468304511147
0.182729490168752
0.197366442431223
0.214729490168751
0.231000000000003
0.245270509831247
0.251633557568776
0.255270509831247
0.262531695488855
0.267000000000000
0.267531695488856
0.260270509831248
0.256633557568772
0.256270509831246
0.255000000000001
0.253729490168750
0.248366442431227
0.245729490168751
0.247468304511145
0.247000000000000
0.247468304511146
0.241729490168751
0.241366442431225
0.242729490168747
0.242999999999998
0.244270509831250
0.241633557568775
0.243270509831251
0.244531695488855
0.243000000000000
0.236531695488855
0.228270509831249
0.220633557568772
0.211270509831247
0.197999999999998
0.179729490168754
0.162366442431231
0.143729490168753
0.128468304511145
0.111000000000000
0.0944683045111462
0.0807294901687510
0.0713664424312274
0.0657294901687499
0.0599999999999978
0.0552705098312492
0.0516335575687746
0.0502705098312485
0.0475316954888535
0.0390000000000000
0.0275316954888560
0.0152705098312492
0.00163355756877561
-0.0157294901687528
-0.0360000000000043
-0.0602705098312489
-0.0786335575687743
-0.0942705098312483
-0.108531695488854
-0.120000000000000
-0.130531695488855
-0.134270509831247
-0.131633557568776
-0.126270509831248
-0.120000000000003
-0.113729490168751
-0.103366442431226
-0.0927294901687499
-0.0844683045111446
-0.0860000000000000
-0.0904683045111449
-0.0957294901687504
-0.104366442431227
-0.117729490168752
-0.136000000000000
-0.153270509831252
-0.165633557568774
-0.174270509831246
-0.181531695488854
-0.185000000000000
-0.185531695488855
-0.178270509831248
-0.166633557568776
-0.154270509831248
-0.145000000000003
-0.136729490168752
-0.129366442431224
-0.122729490168750
-0.123468304511146
-0.132000000000000
-0.143468304511145
-0.157729490168748
-0.171366442431223
-0.185729490168752
-0.203000000000003
-0.215270509831254
-0.222633557568776
-0.222270509831252
-0.217531695488855
-0.207000000000000
-0.189531695488855
-0.164270509831248
-0.133633557568771
-0.0992705098312487
-0.0549999999999973
-0.00472949016875261
0.0506335575687758
0.113270509831247
0.183531695488855
0.262000000000000
0.349531695488855
0.445270509831250
0.549633557568774
0.666270509831249
0.787999999999998
0.918729490168753
1.05936644243123
1.20772949016875
1.36346830451115
1.52000000000000
1.68046830451115
1.84372949016875
2.00636644243123
2.16872949016875
2.32400000000000
2.47327050983124
2.61563355756877
2.74627050983125
2.85553169548885
2.94300000000000
3.01153169548885
3.05927050983125
3.07163355756878
3.05027050983125
2.99900000000000
2.92172949016875
2.81736644243122
2.68972949016875
2.54446830451114
2.37800000000000
2.20346830451115
2.02472949016875
1.84136644243122
1.65772949016875
1.47400000000000
1.29527050983124
1.12463355756877
0.960270509831249
0.803531695488856
0.654000000000000
0.513531695488854
0.382270509831249
0.260633557568778
0.147270509831250
0.0410000000000023
-0.0522705098312491
-0.131633557568777
-0.201270509831248
-0.260531695488856
-0.312000000000000
-0.348531695488856
-0.369270509831249
-0.381633557568773
-0.390270509831244
-0.389999999999999
-0.379729490168748
-0.363366442431226
-0.347729490168752
-0.338468304511146
-0.328000000000000
-0.318468304511146
-0.310729490168751
-0.308366442431227
-0.312729490168749
-0.315000000000000
-0.316270509831252
-0.316633557568774
-0.317270509831250
-0.315531695488854
-0.307000000000000
-0.293531695488855
-0.275270509831248
-0.257633557568774
-0.237270509831245
-0.216000000000000
-0.194729490168755
-0.180366442431232
-0.170729490168754
-0.167468304511146
-0.167000000000000
-0.167468304511147
-0.175729490168756
-0.185366442431229
-0.199729490168752
-0.209999999999996
-0.214270509831245
-0.219633557568773
-0.221270509831250
-0.222531695488854
-0.215000000000000
-0.204531695488855
-0.195270509831248
-0.186633557568777
-0.179270509831249
-0.168999999999997
-0.156729490168752
-0.151366442431224
-0.149729490168753
-0.148468304511146
-0.147000000000000
-0.146468304511145
-0.147729490168752
-0.151366442431223
-0.152729490168751
-0.150999999999996
-0.148270509831247
-0.147633557568776
-0.147270509831251
-0.144531695488855
-0.141000000000000
-0.135531695488855
-0.129270509831250
-0.123633557568775
-0.114270509831249
-0.105999999999998
-0.0957294901687466
-0.0853664424312246
-0.0777294901687529
-0.0684683045111452
-0.0600000000000000
-0.0514683045111454
-0.0457294901687534
-0.0423664424312252
-0.0427294901687538
-0.0439999999999985
-0.0462705098312499
-0.0486335575687751
-0.0522705098312469
-0.0565316954888547
-0.0560000000000000
-0.0545316954888547
-0.0492705098312508
-0.0426335575687751
-0.0332705098312466
-0.0199999999999950
-0.00672949016875042
0.00963355756877211
0.0212705098312487
0.0325316954888536
0.0410000000000000
0.0475316954888548
0.0522705098312470
0.0486335575687698
0.0422705098312469
0.0370000000000021
0.0277294901687572
0.0203664424312281
0.00772949016875149
-0.00153169548885559
-0.00600000000000000
-0.00753169548885385
-0.00227050983124922
0.00136644243122441
0.0107294901687496
0.0269999999999975
0.0452705098312490
0.0616335575687771
0.0762705098312483
0.0885316954888534
0.100000000000000
0.107531695488854
0.108270509831249
0.103633557568773
0.0942705098312507
0.0879999999999994
0.0807294901687546
0.0723664424312259
0.0667294901687519
0.0674683045111446
0.0760000000000000
0.0864683045111460
0.0997294901687504
0.117366442431221
0.141729490168749
0.164999999999997
0.186270509831252
0.201633557568777
0.214270509831250
0.228531695488855
0.239000000000000
0.242531695488856
0.240270509831248
0.237633557568774
0.237270509831242
0.239000000000000
0.240729490168752
0.240366442431226
0.244729490168752
0.256468304511146
0.272000000000000
0.287468304511147
0.300729490168750
0.318366442431223
0.340729490168748
0.362000000000003
0.378270509831251
0.389633557568776
0.401270509831246
0.414531695488855
0.426000000000000
0.434531695488854
0.437270509831248
0.440633557568774
0.450270509831242
0.459000000000001
0.465729490168753
0.470366442431233
0.476729490168753
0.491468304511146
0.505000000000000
0.515468304511147
0.526729490168754
0.540366442431228
0.560729490168754
0.580999999999996
0.597270509831244
0.613633557568776
0.632270509831249
0.655531695488855
0.674000000000000
0.688531695488855
0.701270509831249
0.714633557568769
0.727270509831249
0.733999999999994
0.737729490168753
0.741366442431228
0.749729490168753
0.757468304511146
0.765000000000000
0.771468304511147
0.783729490168753
0.802366442431222
0.819729490168747
0.838999999999995
0.854270509831250
0.875633557568775
0.897270509831253
0.914531695488855
0.930000000000000
0.937531695488855
0.943270509831253
0.949633557568775
0.950270509831250
0.945999999999995
0.937729490168754
0.933366442431223
0.931729490168753
0.927468304511144
0.923000000000000
0.924468304511146
0.931729490168753
0.943366442431227
0.955729490168753
0.968999999999994
0.983270509831249
0.999633557568775
1.01527050983125
1.02353169548885
1.02800000000000
1.02653169548886
1.02127050983125
1.01163355756878
0.994270509831244
0.975999999999996
0.953729490168748
0.933366442431229
0.915729490168754
0.899468304511147
0.885000000000000
0.874468304511146
0.866729490168753
0.864366442431227
0.860729490168752
0.854000000000000
0.844270509831249
0.833633557568774
0.819270509831248
0.799531695488856
0.774000000000000
0.743531695488855
0.710270509831250
0.675633557568776
0.640270509831245
0.603000000000003
0.567729490168749
0.535366442431229
0.505729490168750
0.479468304511147
0.454000000000000
0.432468304511146
0.411729490168756
0.394366442431226
0.378729490168752
0.359000000000000
0.340270509831248
0.318633557568773
0.296270509831248
0.272531695488856
0.243000000000000
0.212531695488853
0.184270509831250
0.155633557568777
0.126270509831252
0.0969999999999971
0.0687294901687492
0.0443664424312241
0.0217294901687505
-0.000531695488855045
-0.0240000000000000
-0.0455316954888565
-0.0602705098312482
-0.0746335575687743
-0.0872705098312488
-0.103000000000001
-0.113729490168753
-0.122366442431227
-0.130729490168749
-0.141468304511146
-0.156000000000000
-0.166468304511144
-0.177729490168754
-0.192366442431223
-0.213729490168748
-0.234000000000002
-0.251270509831250
-0.266633557568775
-0.284270509831245
-0.302531695488855
-0.318000000000000
-0.328531695488855
-0.332270509831249
-0.334633557568769
-0.336270509831243
-0.335999999999995
-0.331729490168753
-0.324366442431228
-0.318729490168753
-0.317468304511146
-0.317000000000000
-0.315468304511146
-0.317729490168753
-0.324366442431222
-0.336729490168753
-0.349000000000002
-0.357270509831250
-0.368633557568775
-0.381270509831253
-0.396531695488855
-0.406000000000000
-0.406531695488855
-0.403270509831249
-0.399633557568770
-0.393270509831250
-0.382000000000002
-0.367729490168754
-0.354366442431228
-0.342729490168754
-0.337468304511144
-0.331000000000000
-0.329468304511148
-0.333729490168753
-0.343366442431222
-0.354729490168746
-0.366999999999994
-0.378270509831249
-0.390633557568774
-0.400270509831252
-0.407531695488854
-0.408000000000000
-0.402531695488855
-0.396270509831249
-0.384633557568776
-0.373270509831244
-0.359999999999996
-0.346729490168755
-0.337366442431223
-0.330729490168754
-0.328468304511145
-0.330000000000000
-0.333468304511146
-0.340729490168752
-0.350366442431227
-0.359729490168746
-0.369000000000000
-0.374270509831248
-0.378633557568779
-0.381270509831248
-0.377531695488854
-0.372000000000000
-0.362531695488855
-0.355270509831250
-0.344633557568776
-0.333270509831245
-0.323999999999997
-0.313729490168749
-0.308366442431229
-0.303729490168750
-0.301468304511147
-0.300000000000000
-0.300468304511146
-0.304729490168752
-0.309366442431226
-0.312729490168752
-0.313000000000000
-0.314270509831248
-0.314633557568773
-0.316270509831248
-0.315531695488856
-0.312000000000000
-0.309531695488853
-0.304270509831250
-0.299633557568771
-0.295270509831245
-0.287999999999997
-0.279729490168749
-0.273366442431224
-0.268729490168755
-0.264468304511147
-0.259000000000000
-0.254468304511146
-0.253729490168756
-0.258366442431226
-0.262729490168751
-0.265999999999992
-0.269270509831247
-0.274633557568773
-0.284270509831251
-0.290531695488856
-0.295000000000000
-0.293531695488854
-0.290270509831251
-0.287633557568777
-0.280270509831253
-0.269999999999998
-0.256729490168750
-0.246366442431225
-0.236729490168751
-0.227468304511145
-0.217000000000000
-0.210468304511145
-0.210729490168751
-0.214366442431231
-0.219729490168750
-0.223999999999998
-0.232270509831247
-0.241633557568772
-0.254270509831251
-0.263531695488854
-0.266000000000000
-0.266531695488856
-0.264270509831247
-0.260633557568778
-0.250270509831247
-0.235999999999999
-0.222729490168744
-0.209366442431225
-0.198729490168755
-0.187468304511145
-0.180000000000000
-0.179468304511145
-0.186729490168751
-0.194366442431230
-0.202729490168750
-0.215000000000005
-0.228270509831246
-0.243633557568777
-0.252270509831246
-0.256531695488856
-0.256000000000000
-0.251531695488856
-0.245270509831247
-0.232633557568778
-0.217270509831247
-0.203999999999999
-0.193729490168751
-0.186366442431226
-0.179729490168752
-0.176468304511146
-0.180000000000000
-0.190468304511145
-0.202729490168755
-0.213366442431230
-0.223729490168749
-0.235999999999997
-0.248270509831245
-0.257633557568771
-0.260270509831246
-0.256531695488855
-0.253000000000000
-0.248531695488852
-0.244270509831248
-0.234633557568773
-0.224270509831254
-0.217000000000000
-0.214729490168752
-0.212366442431226
-0.210729490168748
-0.208468304511146
-0.211000000000000
-0.217468304511145
-0.222729490168750
-0.226366442431224
-0.230729490168755
-0.235999999999996
-0.242270509831251
-0.245633557568771
-0.250270509831250
-0.252531695488855
-0.255000000000000
-0.254531695488854
-0.252270509831248
-0.248633557568774
-0.243270509831255
-0.238000000000000
-0.233729490168752
-0.228366442431221
-0.221729490168753
-0.216468304511144
-0.212000000000000
-0.211468304511147
-0.213729490168750
-0.215366442431229
-0.219729490168754
-0.224000000000003
-0.230270509831251
-0.238633557568776
-0.246270509831249
-0.252531695488853
-0.257000000000000
-0.259531695488855
-0.260270509831248
-0.257633557568775
-0.255270509831243
-0.249000000000001
-0.242729490168747
-0.235366442431227
-0.226729490168749
-0.220468304511146
-0.215000000000000
-0.214468304511146
-0.215729490168749
-0.217366442431228
-0.223729490168754
-0.231000000000002
-0.242270509831243
-0.253633557568775
-0.262270509831249
-0.269531695488855
-0.273000000000000
-0.275531695488853
-0.271270509831249
-0.265633557568775
-0.255270509831250
-0.243000000000002
-0.229729490168754
-0.215366442431228
-0.201729490168749
-0.192468304511146
-0.188000000000000
-0.187468304511146
-0.191729490168753
-0.197366442431222
-0.207729490168753
-0.221000000000001
-0.235270509831243
-0.247633557568775
-0.253270509831249
-0.255531695488855
-0.257000000000000
-0.252531695488855
-0.243270509831249
-0.228633557568776
-0.212270509831250
-0.202999999999996
-0.190729490168754
-0.182366442431223
-0.176729490168750
-0.173468304511147
-0.178000000000000
-0.187468304511144
-0.195729490168753
-0.205366442431221
-0.216729490168753
-0.229000000000001
-0.240270509831249
-0.245633557568774
-0.246270509831252
-0.245531695488854
-0.245000000000000
-0.240531695488855
-0.234270509831250
-0.224633557568776
-0.218270509831251
-0.213999999999996
-0.210729490168748
-0.204366442431223
-0.201729490168754
-0.200468304511145
-0.206000000000000
-0.211468304511146
-0.215729490168752
-0.218366442431226
-0.222729490168752
-0.229000000000000
-0.233270509831248
-0.235633557568774
-0.237270509831248
-0.239531695488854
-0.242000000000000
-0.243531695488855
-0.237270509831246
-0.232633557568771
-0.231270509831245
-0.228000000000004
-0.224729490168749
-0.217366442431229
-0.209729490168750
-0.207468304511145
-0.206000000000000
-0.206468304511146
-0.202729490168752
-0.205366442431226
-0.210729490168745
-0.217999999999999
-0.225270509831247
-0.227633557568773
-0.233270509831247
-0.240531695488856
-0.244000000000000
-0.241531695488853
-0.236270509831250
-0.231633557568772
-0.228270509831252
-0.222000000000004
-0.209729490168750
-0.198366442431224
-0.187729490168751
-0.182468304511145
-0.178000000000000
-0.172468304511145
-0.168729490168752
-0.170366442431225
-0.177729490168751
-0.184999999999999
-0.191270509831253
-0.198633557568778
-0.206270509831247
-0.215531695488856
-0.219000000000000
-0.213531695488856
-0.208270509831251
-0.200633557568772
-0.193270509831246
-0.178999999999998
-0.160729490168750
-0.144366442431219
-0.129729490168751
-0.121468304511145
-0.112000000000000
-0.105468304511143
-0.104729490168751
-0.106366442431225
-0.114729490168757
-0.120999999999998
-0.125270509831253
-0.130633557568772
-0.133270509831247
-0.131531695488854
-0.123000000000000
-0.106531695488854
-0.0882705098312471
-0.0676335575687726
-0.0442705098312470
-0.0199999999999988
0.00527050983124270
0.0256335575687745
0.0412705098312444
0.0545316954888545
0.0620000000000000
0.0675316954888528
0.0672705098312493
0.0676335575687701
0.0662705098312505
0.0670000000000026
0.0687294901687544
0.0723664424312285
0.0787294901687497
0.0904683045111466
0.107000000000000
0.123468304511146
0.141729490168753
0.158366442431221
0.179729490168752
0.199000000000001
0.215270509831249
0.227633557568774
0.237270509831252
0.243531695488854
0.248000000000000
0.248531695488855
0.246270509831250
0.241633557568776
0.236270509831251
0.232999999999996
0.225729490168755
0.217366442431223
0.210729490168750
0.206468304511145
0.205000000000000
0.201468304511146
0.196729490168752
0.193366442431226
0.191729490168752
0.193000000000000
0.192270509831248
0.189633557568773
0.186270509831252
0.181531695488854
0.177000000000000
0.169531695488855
0.159270509831246
0.145633557568777
0.129270509831245
0.113999999999997
0.0957294901687491
0.0753664424312240
0.0577294901687505
0.0414683045111449
0.0290000000000000
0.0154683045111456
0.00272949016875179
-0.00663355756877421
-0.0122705098312488
-0.0149999999999939
-0.0197294901687527
-0.0243664424312270
-0.0277294901687527
-0.0314683045111440
-0.0360000000000000
-0.0414683045111466
-0.0527294901687536
-0.0643664424312228
-0.0787294901687541
-0.0949999999999955
-0.113270509831250
-0.131633557568770
-0.147270509831249
-0.160531695488855
-0.171000000000000
-0.176531695488855
-0.179270509831245
-0.179633557568775
-0.174270509831249
-0.165000000000001
-0.153729490168753
-0.143366442431228
-0.134729490168753
-0.129468304511144
-0.125000000000000
-0.124468304511146
-0.128729490168749
-0.139366442431228
-0.149729490168747
-0.162000000000002
-0.175270509831250
-0.188633557568775
-0.199270509831249
-0.203531695488855
-0.203000000000000
-0.200531695488855
-0.197270509831249
-0.188633557568775
-0.177270509831250
-0.165000000000002
-0.157729490168747
-0.154366442431228
-0.153729490168749
-0.155468304511144
-0.162000000000000
-0.172468304511144
-0.188729490168749
-0.205366442431227
-0.216729490168746
-0.232000000000001
-0.245270509831249
-0.252633557568780
-0.256270509831248
-0.251531695488854
-0.241000000000000
-0.228531695488855
-0.213270509831249
-0.190633557568770
-0.158270509831251
-0.119000000000003
-0.0787294901687480
-0.0343664424312286
0.0202705098312462
0.0875316954888533
0.163000000000000
0.237531695488856
0.324270509831248
0.424633557568773
0.533270509831241
0.648000000000000
0.770729490168752
0.907366442431226
1.05272949016875
1.20446830451115
1.36000000000000
1.52046830451114
1.68472949016875
1.85336644243123
2.02172949016875
2.18400000000000
2.34027050983124
2.49063355756878
2.63027050983125
2.75053169548886
2.85400000000000
2.93753169548885
2.99527050983125
3.02463355756877
3.02127050983125
2.99300000000001
2.92972949016875
2.84036644243123
2.72872949016875
2.59646830451115
2.44500000000000
2.27446830451115
2.09972949016875
1.92036644243122
1.73772949016875
1.55400000000000
1.37127050983125
1.19663355756878
1.03127050983125
0.872531695488855
0.719000000000000
0.574531695488854
0.441270509831252
0.318633557568774
0.202270509831249
0.0929999999999941
-0.00327050983124720
-0.0876335575687784
-0.160270509831251
-0.224531695488856
-0.277000000000000
-0.315531695488856
-0.341270509831251
-0.355633557568777
-0.364270509831246
-0.362999999999998
-0.355729490168750
-0.343366442431225
-0.331729490168751
-0.322468304511147
-0.316000000000000
-0.311468304511145
-0.308729490168755
-0.313366442431225
-0.318729490168750
-0.327000000000005
-0.333270509831247
-0.337633557568772
-0.339270509831247
-0.335531695488854
-0.330000000000000
-0.320531695488854
-0.303270509831247
-0.285633557568772
-0.265270509831247
-0.248999999999998
-0.233729490168750
-0.218366442431231
-0.207729490168751
-0.200468304511145
-0.200000000000000
-0.202468304511145
-0.206729490168755
-0.213366442431225
-0.220729490168756
-0.230999999999998
-0.237270509831252
-0.240633557568772
-0.240270509831250
-0.235531695488856
-0.231000000000000
-0.223531695488854
-0.211270509831247
-0.199633557568773
-0.186270509831254
-0.176999999999999
-0.169729490168751
-0.161366442431226
-0.154729490168752
-0.151468304511143
-0.152000000000000
-0.154468304511147
-0.154729490168751
-0.156366442431224
-0.158729490168749
-0.163999999999997
-0.167270509831252
-0.168633557568771
-0.168270509831250
-0.166531695488855
-0.165000000000000
-0.161531695488856
-0.153270509831248
-0.146633557568773
-0.141270509831248
-0.134000000000000
-0.123729490168752
-0.111366442431226
-0.100729490168752
-0.0944683045111458
-0.0870000000000000
-0.0784683045111448
-0.0717294901687502
-0.0673664424312291
-0.0707294901687486
-0.0740000000000033
-0.0772705098312512
-0.0786335575687763
-0.0822705098312457
-0.0865316954888552
-0.0890000000000000
-0.0875316954888543
-0.0852705098312480
-0.0826335575687739
-0.0792705098312485
-0.0710000000000004
-0.0557294901687523
-0.0433664424312267
-0.0317294901687525
-0.0224683045111460
-0.0120000000000000
0.000531695488855424
0.00927050983124619
0.0116335575687714
0.00827050983124552
0.00499999999999732
0.00272949016875588
-0.00163355756877576
-0.00527050983124533
-0.0125316954888550
-0.0130000000000000
-0.00453169548885447
0.00272949016875161
0.0133664424312311
0.0267294901687509
0.0469999999999989
0.0692705098312471
0.0886335575687783
0.103270509831247
0.116531695488854
0.128000000000000
0.136531695488854
0.138270509831247
0.133633557568777
0.127270509831246
0.120000000000005
0.112729490168750
0.106366442431225
0.102729490168751
0.104468304511145
0.111000000000000
0.122468304511145
0.137729490168747
0.153366442431225
0.174729490168750
0.195999999999998
0.216270509831246
0.234633557568778
0.246270509831251
0.258531695488856
0.264000000000000
0.266531695488854
0.265270509831251
0.263633557568773
0.263270509831247
0.263000000000005
0.262729490168751
0.265366442431225
0.269729490168751
0.278468304511148
0.291000000000000
0.305468304511145
0.320729490168751
0.336366442431225
0.355729490168756
0.374000000000005
0.388270509831252
0.401633557568772
0.411270509831246
0.422531695488853
0.433000000000000
0.438531695488854
0.445270509831251
0.448633557568773
0.452270509831247
0.456999999999999
0.462729490168751
0.471366442431226
0.478729490168752
0.489468304511146
0.502000000000000
0.515468304511145
0.530729490168755
0.545366442431224
0.564729490168756
0.584999999999997
0.606270509831245
0.625633557568771
0.642270509831250
0.660531695488855
0.677000000000000
0.691531695488854
0.703270509831244
0.713633557568773
0.721270509831248
0.731000000000000
0.738729490168752
0.744366442431226
0.748729490168752
0.757468304511144
0.766000000000000
0.776468304511147
0.785729490168750
0.796366442431224
0.810729490168748
0.827000000000003
0.844270509831251
0.858633557568776
0.874270509831250
0.891531695488855
0.908000000000000
0.922531695488857
0.930270509831248
0.934633557568780
0.936270509831249
0.936000000000001
0.935729490168746
0.930366442431227
0.926729490168749
0.924468304511146
0.926000000000000
0.931468304511145
0.936729490168754
0.946366442431229
0.961729490168748
0.979000000000003
0.995270509831250
1.00663355756878
1.01627050983125
1.02453169548886
1.02900000000000
1.02853169548885
1.01827050983125
1.00463355756877
0.990270509831249
0.972999999999994
0.953729490168747
0.931366442431227
0.913729490168753
0.904468304511146
0.894000000000000
0.884468304511144
0.877729490168753
0.875366442431228
0.877729490168754
0.874000000000002
0.867270509831250
0.857633557568775
0.844270509831249
0.829531695488855
0.807000000000000
0.778531695488855
0.745270509831249
0.713633557568770
0.681270509831250
0.646000000000002
0.608729490168754
0.573366442431222
0.545729490168753
0.520468304511144
0.496000000000000
0.470468304511146
0.448729490168753
0.431366442431222
0.413729490168753
0.393999999999994
0.369270509831249
0.343633557568775
0.321270509831249
0.294531695488855
0.266000000000000
0.232531695488855
0.201270509831249
0.171633557568776
0.141270509831244
0.109000000000003
0.0757294901687543
0.0473664424312229
0.0247294901687537
0.00146830451114452
-0.0220000000000000
-0.0455316954888540
-0.0642705098312514
-0.0786335575687731
-0.0932705098312475
-0.104999999999999
-0.119729490168751
-0.130366442431220
-0.139729490168752
-0.152468304511146
-0.164000000000000
-0.178468304511145
-0.192729490168750
-0.206366442431224
-0.222729490168755
-0.240999999999997
-0.258270509831252
-0.271633557568777
-0.284270509831250
-0.296531695488853
-0.309000000000000
-0.318531695488854
-0.325270509831248
-0.327633557568774
-0.330270509831248
-0.332000000000000
-0.330729490168752
-0.329366442431226
-0.326729490168752
-0.324468304511146
-0.324000000000000
-0.324468304511147
-0.327729490168750
-0.334366442431229
-0.343729490168755
-0.358000000000003
-0.368270509831244
-0.378633557568776
-0.390270509831250
-0.400531695488853
-0.408000000000000
-0.408531695488854
-0.403270509831244
-0.396633557568774
-0.386270509831249
-0.375000000000001
-0.360729490168753
-0.346366442431227
-0.335729490168749
-0.326468304511146
-0.324000000000000
-0.324468304511147
-0.329729490168750
-0.338366442431223
-0.348729490168748
-0.364000000000002
-0.377270509831244
-0.385633557568776
-0.392270509831249
-0.395531695488857
-0.397000000000000
-0.391531695488855
-0.380270509831249
-0.365633557568775
-0.349270509831249
-0.336000000000001
-0.322729490168753
-0.309366442431228
-0.298729490168749
-0.292468304511146
-0.294000000000000
-0.298468304511144
-0.303729490168753
-0.309366442431222
-0.318729490168754
-0.330000000000002
-0.338270509831256
-0.340633557568775
-0.341270509831249
-0.340531695488855
-0.339000000000000
-0.333531695488855
-0.325270509831249
-0.312633557568775
-0.304270509831250
-0.296999999999995
-0.291729490168747
-0.285366442431223
-0.280729490168753
-0.281468304511144
-0.284000000000000
-0.288468304511144
-0.290729490168753
-0.293366442431227
-0.300729490168753
-0.306000000000001
-0.308270509831249
-0.309633557568769
-0.309270509831248
-0.312531695488854
-0.312000000000000
-0.307531695488855
-0.300270509831245
-0.292633557568770
-0.288270509831251
-0.282000000000003
-0.272729490168754
-0.264366442431229
-0.258729490168754
-0.255468304511145
-0.254000000000000
-0.249468304511146
-0.249729490168753
-0.252366442431227
-0.259729490168746
-0.264000000000000
-0.265270509831249
-0.269633557568774
-0.274270509831248
-0.281531695488854
-0.284000000000000
-0.282531695488855
-0.282270509831250
-0.279633557568776
-0.279270509831251
-0.274000000000003
-0.261729490168749
-0.253366442431224
-0.243729490168750
-0.237468304511145
-0.229000000000000
-0.220468304511146
-0.217729490168752
-0.223366442431226
-0.230729490168752
-0.239000000000000
-0.247270509831248
-0.259633557568779
-0.274270509831248
-0.284531695488856
-0.289000000000000
-0.289531695488855
-0.287270509831250
-0.284633557568771
-0.276270509831245
-0.260999999999997
-0.244729490168749
-0.230366442431224
-0.221729490168751
-0.212468304511147
-0.207000000000000
-0.204468304511146
-0.211729490168752
-0.223366442431226
-0.235729490168758
-0.248999999999999
-0.262270509831254
-0.273633557568773
-0.283270509831247
-0.288531695488854
-0.289000000000000
-0.284531695488854
-0.275270509831250
-0.263633557568772
-0.251270509831246
-0.238999999999998
-0.227729490168756
-0.217366442431225
-0.211729490168751
-0.209468304511145
-0.212000000000000
-0.218468304511148
-0.227729490168751
-0.238366442431225
-0.248729490168751
-0.255999999999999
-0.264270509831247
-0.269633557568772
-0.271270509831251
-0.268531695488854
-0.262000000000000
-0.254531695488854
-0.245270509831247
-0.236633557568778
-0.226270509831247
-0.218999999999998
-0.212729490168757
-0.209366442431225
-0.208729490168751
-0.208468304511145
-0.209000000000000
-0.213468304511145
-0.219729490168751
-0.225366442431225
-0.230729490168750
-0.234000000000005
-0.236270509831246
-0.241633557568777
-0.245270509831251
-0.245531695488853
-0.243000000000000
-0.238531695488856
-0.236270509831247
-0.233633557568778
-0.227270509831247
-0.217999999999999
-0.210729490168751
-0.208366442431226
-0.206729490168748
-0.201468304511146
-0.198000000000000
-0.197468304511145
-0.202729490168751
-0.207366442431224
-0.208729490168749
-0.210000000000004
-0.214270509831245
-0.223633557568777
-0.229270509831246
-0.232531695488855
-0.231000000000000
-0.232531695488854
-0.235270509831248
-0.233633557568773
-0.226270509831248
-0.216000000000000
-0.207729490168752
-0.203366442431226
-0.195729490168752
-0.184468304511146
-0.176000000000000
-0.173468304511145
-0.177729490168754
-0.182366442431229
-0.185729490168755
-0.191999999999997
-0.203270509831251
-0.218633557568771
-0.229270509831250
-0.234531695488855
-0.239000000000000
-0.242531695488854
-0.244270509831248
-0.238633557568774
-0.225270509831255
-0.212000000000000
-0.200729490168752
-0.188366442431227
-0.175729490168752
-0.164468304511144
-0.161000000000000
-0.165468304511147
-0.170729490168750
-0.178366442431229
-0.188729490168748
-0.203999999999996
-0.216270509831251
-0.227633557568770
-0.234270509831249
-0.237531695488855
-0.237000000000000
-0.232531695488854
-0.224270509831248
-0.211633557568774
-0.198270509831249
-0.187000000000001
-0.178729490168746
-0.169366442431222
-0.161729490168753
-0.160468304511144
-0.164000000000000
-0.172468304511144
-0.179729490168749
-0.187366442431228
-0.197729490168747
-0.209000000000002
-0.218270509831250
-0.223633557568781
-0.223270509831249
-0.221531695488855
-0.218000000000000
-0.212531695488857
-0.202270509831249
-0.189633557568775
-0.179270509831243
-0.171000000000002
-0.163729490168747
-0.156366442431228
-0.149729490168753
-0.147468304511146
-0.148000000000000
-0.152468304511146
-0.155729490168753
-0.159366442431228
-0.163729490168753
-0.168000000000001
-0.175270509831243
-0.180633557568775
-0.182270509831245
-0.184531695488855
-0.186000000000000
-0.186531695488853
-0.185270509831249
-0.179633557568770
-0.174270509831250
-0.170000000000002
-0.165729490168754
-0.161366442431228
-0.154729490168750
-0.148468304511147
-0.148000000000000
-0.149468304511146
-0.149729490168753
-0.150366442431227
-0.150729490168753
-0.153999999999994
-0.159270509831249
-0.163633557568774
-0.166270509831252
-0.167531695488854
-0.171000000000000
-0.171531695488853
-0.170270509831249
-0.165633557568776
-0.157270509831251
-0.152999999999996
-0.143729490168755
-0.132366442431223
-0.121729490168750
-0.112468304511145
-0.107000000000000
-0.102468304511146
-0.101729490168748
-0.104366442431227
-0.110729490168752
-0.123000000000000
-0.136270509831248
-0.148633557568774
-0.159270509831252
-0.171531695488854
-0.180000000000000
-0.183531695488855
-0.178270509831246
-0.169633557568777
-0.160270509831245
-0.148999999999997
-0.133729490168749
-0.116366442431224
-0.102729490168750
-0.0934683045111470
-0.0910000000000000
-0.0894683045111457
-0.0907294901687520
-0.0983664424312260
-0.109729490168751
-0.125000000000006
-0.136270509831248
-0.143633557568773
-0.151270509831247
-0.157531695488856
-0.158000000000000
-0.151531695488853
-0.140270509831246
-0.130633557568777
-0.120270509831246
-0.108000000000004
-0.0957294901687495
-0.0843664424312298
-0.0797294901687507
-0.0814683045111451
-0.0850000000000000
-0.0924683045111455
-0.0997294901687556
-0.109366442431225
-0.122729490168757
-0.132999999999999
-0.139270509831247
-0.144633557568773
-0.147270509831247
-0.148531695488856
-0.146000000000000
-0.138531695488854
-0.130270509831247
-0.121633557568772
-0.114270509831253
-0.102999999999998
-0.0937294901687501
-0.0863664424312248
-0.0827294901687511
-0.0834683045111453
-0.0830000000000000
-0.0834683045111453
-0.0857294901687512
-0.0923664424312250
-0.0987294901687502
-0.103999999999998
-0.106270509831253
-0.109633557568772
-0.110270509831251
-0.110531695488856
-0.108000000000000
-0.102531695488856
-0.0992705098312510
-0.0926335575687725
-0.0872705098312533
-0.0799999999999987
-0.0737294901687507
-0.0683664424312254
-0.0627294901687515
-0.0604683045111454
-0.0580000000000000
-0.0564683045111451
-0.0557294901687508
-0.0533664424312300
-0.0527294901687496
-0.0499999999999976
-0.0462705098312522
-0.0426335575687716
-0.0402705098312463
-0.0365316954888534
-0.0330000000000000
-0.0265316954888561
-0.0182705098312474
-0.0106335575687731
0.00172949016875903
0.0150000000000006
0.0322705098312487
0.0486335575687741
0.0662705098312481
0.0835316954888544
0.0980000000000000
0.112531695488855
0.122270509831250
0.127633557568771
0.129270509831251
0.130999999999996
0.129729490168755
0.129366442431223
0.123729490168754
0.122468304511145
0.128000000000000
0.139468304511146
0.155729490168752
0.173366442431226
0.195729490168752
0.222999999999993
0.251270509831248
0.280633557568774
0.303270509831248
0.319531695488854
0.333000000000000
0.341531695488853
0.345270509831246
0.340633557568777
0.333270509831245
0.327000000000004
0.318729490168749
0.311366442431224
0.302729490168750
0.299468304511145
0.302000000000000
0.307468304511146
0.314729490168748
0.319366442431226
0.326729490168751
0.334999999999999
0.343270509831247
0.345633557568779
0.340270509831251
0.330531695488856
0.320000000000000
0.307531695488856
0.287270509831250
0.264633557568777
0.241270509831246
0.221999999999998
0.202729490168750
0.184366442431224
0.169729490168751
0.158468304511147
0.154000000000000
0.149468304511145
0.143729490168751
0.139366442431225
0.135729490168751
0.135000000000006
0.130270509831247
0.122633557568773
0.110270509831247
0.100531695488854
0.0910000000000000
0.0765316954888536
0.0592705098312467
0.0426335575687721
0.0292705098312464
0.0149999999999982
0.00172949016875023
-0.0136335575687695
-0.0232705098312488
-0.0275316954888547
-0.0330000000000000
-0.0385316954888547
-0.0432705098312449
-0.0426335575687752
-0.0412705098312434
-0.0430000000000019
-0.0467294901687538
-0.0493664424312280
-0.0507294901687494
-0.0514683045111444
-0.0540000000000000
-0.0594683045111462
-0.0657294901687529
-0.0703664424312273
-0.0737294901687465
-0.0790000000000012
-0.0872705098312492
-0.0976335575687745
-0.104270509831248
-0.109531695488857
-0.115000000000000
-0.119531695488853
-0.125270509831249
-0.125633557568776
-0.122270509831251
-0.120000000000003
-0.115729490168748
-0.111366442431229
-0.105729490168750
-0.0994683045111446
-0.0970000000000000
-0.0984683045111439
-0.103729490168753
-0.111366442431227
-0.118729490168752
-0.133000000000001
-0.150270509831249
-0.165633557568774
-0.180270509831248
-0.189531695488854
-0.193000000000000
-0.191531695488855
-0.184270509831250
-0.169633557568771
-0.144270509831251
-0.110999999999996
-0.0707294901687485
-0.0253664424312235
0.0282705098312459
0.0875316954888553
0.150000000000000
0.216531695488854
0.291270509831248
0.374633557568774
0.460270509831248
0.555000000000000
0.657729490168746
0.773366442431227
0.898729490168752
1.03846830451115
1.19000000000000
1.34946830451114
1.51572949016875
1.68736644243123
1.86272949016875
2.03800000000000
2.20527050983124
2.36363355756878
2.51327050983125
2.64653169548886
2.76500000000000
2.85953169548885
2.93127050983125
2.98263355756877
3.01127050983125
3.01600000000000
2.98572949016875
2.93036644243122
2.85772949016875
2.76546830451115
2.65100000000000
2.51346830451114
2.36472949016875
2.20736644243122
2.04072949016875
1.86500000000000
1.68227050983125
1.49963355756878
1.32327050983125
1.14753169548885
0.974000000000000
0.808531695488855
0.654270509831253
0.516633557568775
0.385270509831249
0.264000000000001
0.157729490168753
0.0663664424312221
-0.00727050983124692
-0.0735316954888558
-0.131000000000000
-0.175531695488854
-0.208270509831251
-0.230633557568772
-0.249270509831247
-0.265000000000005
-0.277729490168750
-0.281366442431225
-0.283729490168751
-0.285468304511145
-0.287000000000000
-0.286468304511147
-0.281729490168751
-0.278366442431225
-0.275729490168756
-0.277000000000005
-0.274270509831253
-0.269633557568772
-0.267270509831251
-0.265531695488853
-0.264000000000000
-0.260531695488854
-0.251270509831255
-0.241633557568767
-0.230270509831254
-0.218999999999992
-0.203729490168751
-0.186366442431226
-0.169729490168752
-0.157468304511148
-0.148000000000000
-0.138468304511145
-0.131729490168755
-0.132366442431224
-0.135729490168756
-0.143999999999997
-0.150270509831245
-0.158633557568777
-0.168270509831246
-0.176531695488853
-0.181000000000000
-0.176531695488854
-0.169270509831244
-0.158633557568779
-0.146270509831248
-0.130000000000006
-0.110729490168752
-0.0913664424312261
-0.0767294901687520
-0.0684683045111436
-0.0620000000000000
-0.0594683045111469
-0.0627294901687502
-0.0693664424312237
-0.0797294901687487
-0.0920000000000034
-0.102270509831251
-0.111633557568771
-0.116270509831254
-0.118531695488855
-0.115000000000000
-0.108531695488856
-0.0942705098312480
-0.0786335575687738
-0.0622705098312548
-0.0469999999999935
-0.0317294901687522
-0.0183664424312266
-0.00872949016874840
-0.00646830451114595
-0.00800000000000000
-0.0104683045111446
-0.0157294901687539
-0.0203664424312232
-0.0307294901687481
-0.0380000000000028
-0.0432705098312507
-0.0466335575687759
-0.0452705098312454
-0.0425316954888571
-0.0380000000000000
-0.0295316954888544
-0.0202705098312483
-0.00863355756876883
0.00272949016875753
0.0129999999999991
0.0232705098312537
0.0316335575687728
0.0372705098312472
0.0395316954888539
0.0410000000000000
0.0425316954888535
0.0412705098312505
0.0426335575687719
0.0392705098312460
0.0379999999999979
0.0387294901687499
0.0413664424312302
0.0477294901687470
0.0514683045111473
0.0580000000000000
0.0694683045111454
0.0817294901687513
0.0943664424312306
0.104729490168744
0.115000000000005
0.127270509831240
0.135633557568783
0.142270509831247
0.146531695488856
0.152000000000000
0.157531695488856
0.162270509831247
0.165633557568778
0.165270509831253
0.168000000000005
0.170729490168751
0.173366442431225
0.173729490168755
0.174468304511143
0.175000000000000
0.179468304511145
0.182729490168751
0.187366442431225
0.194729490168756
0.207999999999991
0.222270509831252
0.237633557568772
0.249270509831246
0.263531695488856
0.277000000000000
0.290531695488854
0.298270509831251
0.298633557568767
0.298270509831254
0.296999999999999
0.297729490168751
0.292366442431220
0.284729490168752
0.280468304511146
0.285000000000000
0.292468304511145
0.302729490168751
0.315366442431224
0.334729490168756
0.362000000000004
0.388270509831245
0.410633557568777
0.430270509831250
0.450531695488853
0.470000000000000
0.481531695488854
0.487270509831248
0.484633557568779
0.483270509831248
0.483000000000000
0.481729490168752
0.481366442431226
0.482729490168752
0.490468304511144
0.504000000000000
0.521468304511149
0.539729490168750
0.563366442431229
0.588729490168755
0.617000000000003
0.641270509831251
0.658633557568771
0.676270509831254
0.691531695488853
0.702000000000000
0.706531695488854
0.707270509831252
0.707633557568774
0.709270509831248
0.711999999999994
0.715729490168752
0.719366442431227
0.727729490168748
0.740468304511148
0.756000000000000
0.774468304511145
0.791729490168754
0.814366442431223
0.838729490168748
0.859000000000003
0.877270509831238
0.891633557568781
0.907270509831245
0.921531695488855
0.931000000000000
0.936531695488855
0.940270509831249
0.944633557568775
0.948270509831243
0.951000000000008
0.953729490168753
0.956366442431227
0.961729490168749
0.967468304511146
0.976000000000000
0.984468304511146
0.994729490168749
1.00336644243122
1.01472949016875
1.02100000000000
1.02927050983126
1.03163355756877
1.03527050983125
1.03953169548885
1.03900000000000
1.03953169548885
1.03327050983125
1.02763355756877
1.02327050983126
1.01799999999999
1.00972949016875
0.997366442431222
0.985729490168753
0.974468304511144
0.964000000000000
0.951468304511144
0.938729490168757
0.929366442431222
0.921729490168753
0.915000000000001
0.907270509831249
0.899633557568775
0.890270509831245
0.883531695488857
0.874000000000000
0.858531695488855
0.838270509831245
0.812633557568770
0.785270509831250
0.756000000000002
0.721729490168748
0.687366442431228
0.652729490168754
0.621468304511145
0.593000000000000
0.564468304511148
0.541729490168749
0.523366442431233
0.509729490168746
0.499000000000001
0.485270509831249
0.470633557568769
0.456270509831252
0.439531695488854
0.417000000000000
0.386531695488855
0.351270509831250
0.315633557568776
0.278270509831251
0.237999999999996
0.196729490168755
0.161366442431218
0.130729490168750
0.103468304511145
0.0820000000000000
0.0624683045111438
0.0527294901687523
0.0493664424312209
0.0437294901687455
0.0400000000000001
0.0292705098312481
0.0206335575687792
0.0102705098312438
-0.00346830451114373
-0.0240000000000000
-0.0494683045111447
-0.0737294901687501
-0.0983664424312290
-0.122729490168755
-0.148999999999996
-0.172270509831258
-0.189633557568771
-0.200270509831250
-0.211531695488853
-0.220000000000000
-0.225531695488854
-0.225270509831252
-0.219633557568769
-0.220270509831249
-0.221000000000001
-0.224729490168746
-0.226366442431227
-0.227729490168749
-0.233468304511148
-0.245000000000000
-0.254468304511145
-0.264729490168750
-0.276366442431228
-0.289729490168754
-0.304000000000003
-0.313270509831244
-0.318633557568781
-0.322270509831245
-0.326531695488855
-0.330000000000000
-0.326531695488852
-0.321270509831244
-0.316633557568780
-0.312270509831243
-0.307000000000001
-0.305729490168753
-0.301366442431227
-0.298729490168749
-0.295468304511144
-0.295000000000000
-0.294468304511146
-0.294729490168753
-0.296366442431228
-0.298729490168754
-0.302000000000002
-0.305270509831250
-0.307633557568770
-0.312270509831253
-0.316531695488855
-0.320000000000000
-0.320531695488853
-0.319270509831253
-0.315633557568770
-0.308270509831256
-0.301999999999988
-0.293729490168754
-0.282366442431222
-0.271729490168749
-0.259468304511146
-0.250000000000000
-0.242468304511144
-0.239729490168757
-0.241366442431222
-0.246729490168753
-0.255000000000001
-0.264270509831243
-0.272633557568780
-0.284270509831248
-0.291531695488857
-0.297000000000000
-0.296531695488855
-0.290270509831249
-0.280633557568781
-0.267270509831244
-0.253000000000003
-0.235729490168754
-0.220366442431223
-0.206729490168754
-0.198468304511145
-0.193000000000000
-0.192468304511148
-0.195729490168749
-0.203366442431227
-0.216729490168752
-0.230000000000001
-0.240270509831249
-0.249633557568774
-0.254270509831252
-0.260531695488852
-0.260000000000000
-0.253531695488855
-0.240270509831246
-0.226633557568771
-0.214270509831251
-0.201999999999996
-0.189729490168748
-0.176366442431229
-0.169729490168750
-0.168468304511145
-0.173000000000000
-0.177468304511144
-0.182729490168752
-0.194366442431226
-0.207729490168752
-0.219000000000000
-0.226270509831248
-0.230633557568779
-0.233270509831244
-0.237531695488858
-0.237000000000000
-0.228531695488853
-0.218270509831246
-0.208633557568771
-0.201270509831245
-0.196000000000011
-0.186729490168743
-0.180366442431230
-0.175729490168750
-0.176468304511145
-0.177000000000000
-0.177468304511146
-0.181729490168752
-0.188366442431231
-0.196729490168751
-0.203999999999999
-0.205270509831254
-0.207633557568767
-0.209270509831251
-0.210531695488854
-0.208000000000000
-0.201531695488856
-0.195270509831250
-0.192633557568772
-0.191270509831259
-0.185999999999991
-0.180729490168756
-0.176366442431219
-0.176729490168751
-0.177468304511145
-0.178000000000000
-0.176468304511143
-0.179729490168755
-0.187366442431220
-0.190729490168764
-0.193999999999999
-0.198270509831253
-0.202633557568772
-0.211270509831247
-0.217531695488856
-0.217000000000000
-0.217531695488856
-0.218270509831247
-0.217633557568772
-0.216270509831246
-0.207000000000005
-0.196729490168750
-0.189366442431225
-0.182729490168755
-0.174468304511145
-0.165000000000000
-0.160468304511147
-0.161729490168747
-0.168366442431230
-0.174729490168750
-0.180000000000005
-0.191270509831246
-0.204633557568772
-0.222270509831251
-0.231531695488854
-0.234000000000000
-0.234531695488856
-0.233270509831247
-0.228633557568773
-0.217270509831247
-0.201999999999999
-0.187729490168757
-0.176366442431220
-0.166729490168752
-0.157468304511146
-0.151000000000000
-0.152468304511147
-0.159729490168751
-0.167366442431224
-0.179729490168756
-0.189999999999997
-0.200270509831246
-0.211633557568777
-0.217270509831250
-0.220531695488858
-0.218000000000000
-0.212531695488852
-0.203270509831252
-0.190633557568773
-0.178270509831248
-0.165000000000000
-0.153729490168745
-0.147366442431232
-0.142729490168748
-0.141468304511146
-0.145000000000000
-0.151468304511145
-0.160729490168754
-0.172366442431229
-0.182729490168749
-0.193000000000010
-0.203270509831251
-0.210633557568776
-0.213270509831250
-0.214531695488853
-0.213000000000000
-0.208531695488856
-0.201270509831244
-0.193633557568774
-0.182270509831248
-0.173999999999993
-0.166729490168759
-0.160366442431221
-0.155729490168752
-0.151468304511144
-0.154000000000000
-0.156468304511147
-0.163729490168754
-0.171366442431218
-0.178729490168755
-0.185999999999996
-0.188270509831251
-0.192633557568770
-0.192270509831249
-0.189531695488855
-0.185000000000000
-0.178531695488852
-0.174270509831248
-0.167633557568774
-0.160270509831242
-0.152000000000001
-0.149729490168753
-0.146366442431233
-0.144729490168749
-0.139468304511146
-0.136000000000000
-0.137468304511147
-0.138729490168754
-0.141366442431228
-0.140729490168748
-0.141000000000009
-0.147270509831244
-0.154633557568775
-0.159270509831249
-0.161531695488855
-0.164000000000000
-0.167531695488857
-0.171270509831245
-0.168633557568780
-0.163270509831250
-0.154000000000002
-0.147729490168747
-0.139366442431222
-0.128729490168753
-0.118468304511144
-0.108000000000000
-0.106468304511144
-0.106729490168749
-0.109366442431228
-0.115729490168753
-0.122999999999995
-0.137270509831256
-0.150633557568775
-0.161270509831249
-0.166531695488855
-0.172000000000000
-0.175531695488853
-0.174270509831253
-0.166633557568764
-0.153270509831250
-0.140000000000002
-0.126729490168748
-0.114366442431228
-0.100729490168750
-0.0914683045111465
-0.0870000000000000
-0.0914683045111440
-0.0967294901687528
-0.103366442431227
-0.114729490168746
-0.127000000000001
-0.144270509831249
-0.154633557568780
-0.160270509831248
-0.163531695488854
-0.165000000000000
-0.163531695488857
-0.155270509831245
-0.142633557568776
-0.129270509831244
-0.117999999999996
-0.107729490168755
-0.0963664424312232
-0.0857294901687579
-0.0834683045111425
-0.0860000000000000
-0.0914683045111459
-0.0967294901687524
-0.102366442431227
-0.112729490168752
-0.124999999999993
-0.135270509831255
-0.140633557568768
-0.142270509831248
-0.143531695488854
-0.146000000000000
-0.143531695488853
-0.133270509831250
-0.124633557568771
-0.115270509831251
-0.110000000000003
-0.101729490168749
-0.0933664424312237
-0.0897294901687503
-0.0894683045111469
-0.0930000000000000
-0.0984683045111457
-0.101729490168748
-0.107366442431226
-0.116729490168752
-0.125000000000006
-0.127270509831241
-0.126633557568779
-0.125270509831248
-0.123531695488856
-0.121000000000000
-0.114531695488855
-0.104270509831246
-0.0976335575687824
-0.0922705098312390
-0.0880000000000041
-0.0837294901687494
-0.0763664424312242
-0.0727294901687507
-0.0684683045111450
-0.0690000000000000
-0.0694683045111477
-0.0677294901687516
-0.0693664424312256
-0.0687294901687510
-0.0730000000000058
-0.0772705098312471
-0.0796335575687728
-0.0842705098312512
-0.0895316954888538
-0.0920000000000000
-0.0935316954888535
-0.0932705098312466
-0.0926335575687664
-0.0912705098312526
-0.0849999999999911
-0.0787294901687500
-0.0683664424312303
-0.0597294901687510
-0.0504683045111473
-0.0430000000000000
-0.0394683045111432
-0.0377294901687553
-0.0393664424312251
-0.0447294901687568
-0.0539999999999983
-0.0642705098312465
-0.0746335575687778
-0.0852705098312468
-0.0935316954888578
-0.0990000000000000
-0.0975316954888537
-0.0952705098312469
-0.0856335575687780
-0.0762705098312467
-0.0620000000000054
-0.0467294901687571
-0.0323664424312253
-0.0197294901687514
-0.0124683045111433
-0.00900000000000000
-0.00846830451114725
-0.0117294901687509
-0.0203664424312245
-0.0357294901687497
-0.0509999999999977
-0.0632705098312524
-0.0726335575687662
-0.0822705098312544
-0.0895316954888534
-0.0920000000000000
-0.0855316954888560
-0.0752705098312473
-0.0626335575687730
-0.0532705098312538
-0.0419999999999924
-0.0287294901687512
-0.0183664424312258
-0.0107294901687518
-0.0104683045111456
-0.0130000000000000
-0.0154683045111449
-0.0217294901687545
-0.0313664424312240
-0.0447294901687491
-0.0560000000000039
-0.0602705098312517
-0.0636335575687767
-0.0672705098312460
-0.0675316954888553
-0.0650000000000000
-0.0545316954888541
-0.0432705098312477
-0.0336335575687735
-0.0242705098312415
-0.0160000000000067
-0.00472949016874533
0.00263355756877369
0.00527050983124783
0.00553169548885418
0.000999999999999997
-0.000468304511146850
-0.00472949016875011
-0.0163664424312290
-0.0257294901687550
-0.0320000000000032
-0.0322705098312446
-0.0326335575687762
-0.0352705098312496
-0.0345316954888530
-0.0280000000000000
-0.0225316954888543
-0.0152705098312481
-0.0116335575687685
-0.00727050983125506
0.00100000000000629
0.00627050983124108
0.00963355756877868
0.0122705098312475
0.0155316954888540
0.0210000000000000
0.0225316954888576
0.0242705098312463
0.0236335575687770
0.0272705098312391
0.0310000000000043
0.0297294901687495
0.0263664424312243
0.0227294901687547
0.0224683045111430
0.0260000000000000
0.0294683045111455
0.0317294901687475
0.0363664424312255
0.0507294901687508
0.0669999999999920
0.0852705098312534
0.105633557568773
0.122270509831247
0.141531695488856
0.159000000000000
0.174531695488854
0.182270509831251
0.188633557568767
0.193270509831253
0.197000000000005
0.196729490168750
0.191366442431225
0.191729490168751
0.195468304511147
0.204000000000000
0.215468304511143
0.228729490168751
0.249366442431225
0.274729490168757
0.303000000000005
0.332270509831246
0.358633557568778
0.382270509831247
0.401531695488854
0.417000000000000
0.424531695488854
0.424270509831247
0.418633557568778
0.411270509831247
0.400999999999999
0.388729490168751
0.376366442431225
0.365729490168752
0.359468304511143
0.359000000000000
0.362468304511147
0.366729490168751
0.373366442431224
0.381729490168756
0.388999999999998
0.398270509831252
0.400633557568766
0.398270509831254
0.392531695488853
0.383000000000000
0.370531695488854
0.353270509831243
0.333633557568773
0.315270509831248
0.295999999999993
0.279729490168751
0.264366442431226
0.251729490168752
0.243468304511148
0.237000000000000
0.235468304511145
0.231729490168754
0.229366442431224
0.228729490168749
0.227000000000004
0.224270509831239
0.213633557568777
0.202270509831246
0.189531695488855
0.173000000000000
0.154531695488856
0.131270509831248
0.110633557568779
0.0942705098312416
0.0780000000000069
0.0607294901687390
0.0473664424312264
0.0397294901687482
0.0374683045111459
0.0350000000000000
0.0314683045111468
0.0287294901687500
0.0303664424312234
0.0347294901687484
0.0350000000000031
0.0322705098312510
0.0306335575687705
0.0342705098312496
0.0355316954888551
0.0350000000000000
0.0295316954888544
0.0252705098312482
0.0256335575687686
0.0252705098312552
0.0199999999999939
0.00972949016875258
0.00236644243122696
-0.000270509831247365
-0.00453169548885394
-0.0100000000000000
-0.0175316954888576
-0.0202705098312423
-0.0176335575687772
-0.0132705098312458
-0.0109999999999976
-0.0107294901687496
-0.00736644243122446
-0.000729490168754829
0.00253169548885700
0.00200000000000000
-0.00446830451114545
-0.0147294901687515
-0.0233664424312309
-0.0367294901687507
-0.0539999999999987
-0.0752705098312533
-0.0926335575687725
-0.102270509831247
-0.109531695488856
-0.109000000000000
-0.107531695488852
-0.0932705098312507
-0.0666335575687722
-0.0322705098312529
0.00899999999999494
0.0542705098312497
0.112633557568775
0.181270509831253
0.250531695488853
0.322000000000000
0.399531695488855
0.487270509831249
0.579633557568775
0.672270509831250
0.772999999999995
0.885729490168754
1.00936644243122
1.14072949016875
1.28346830451114
1.43600000000000
1.59646830451114
1.76272949016875
1.93336644243122
2.09972949016876
2.26200000000000
2.42027050983125
2.56463355756878
2.69427050983124
2.80753169548885
2.90000000000000
2.96853169548885
3.01027050983125
3.02863355756878
3.02227050983124
2.98400000000001
2.92072949016874
2.83436644243123
2.72972949016875
2.60146830451115
2.45700000000000
2.30246830451115
2.14072949016875
1.97236644243123
1.79872949016875
1.62400000000000
1.44927050983125
1.27763355756877
1.11027050983125
0.944531695488852
0.785000000000000
0.635531695488855
0.499270509831250
0.371633557568771
0.256270509831245
0.151999999999996
0.0617294901687550
-0.0126335575687765
-0.0752705098312458
-0.124531695488853
-0.169000000000000
-0.201531695488854
-0.223270509831244
-0.237633557568779
-0.247270509831242
-0.256000000000007
-0.258729490168752
-0.255366442431227
-0.250729490168748
-0.245468304511144
-0.242000000000000
-0.236468304511147
-0.225729490168750
-0.215366442431229
-0.209729490168748
-0.205000000000003
-0.201270509831251
-0.195633557568770
-0.189270509831254
-0.187531695488855
-0.186000000000000
-0.182531695488852
-0.174270509831248
-0.163633557568769
-0.155270509831255
-0.144999999999994
-0.131729490168753
-0.116366442431227
-0.100729490168749
-0.0904683045111440
-0.0820000000000000
-0.0734683045111444
-0.0677294901687576
-0.0663664424312227
-0.0727294901687541
-0.0800000000000023
-0.0882705098312437
-0.0956335575687809
-0.103270509831245
-0.112531695488857
-0.116000000000000
-0.113531695488855
-0.106270509831249
-0.0966335575687803
-0.0862705098312430
-0.0710000000000015
-0.0507294901687468
-0.0333664424312221
-0.0207294901687531
-0.0144683045111442
-0.00800000000000000
-0.00446830451114636
-0.00872949016874918
-0.0173664424312222
-0.0307294901687535
-0.0410000000000016
-0.0502705098312496
-0.0606335575687694
-0.0692705098312527
-0.0745316954888525
-0.0700000000000000
-0.0595316954888548
-0.0462705098312450
-0.0346335575687698
-0.0212705098312501
-0.00299999999999530
0.0142705098312461
0.0266335575687719
0.0332705098312465
0.0345316954888556
0.0340000000000000
0.0325316954888560
0.0262705098312472
0.0156335575687728
0.00427050983124714
-0.00300000000000097
-0.00727050983124899
-0.0116335575687744
-0.0152705098312443
-0.0135316954888566
-0.00300000000000000
0.00846830451114500
0.0207294901687546
0.0313664424312242
0.0457294901687558
0.0629999999999904
0.0782705098312584
0.0866335575687714
0.0892705098312502
0.0915316954888554
0.0920000000000000
0.0885316954888541
0.0842705098312476
0.0776335575687678
0.0732705098312542
0.0709999999999997
0.0707294901687516
0.0723664424312206
0.0757294901687480
0.0834683045111458
0.0940000000000000
0.104468304511145
0.113729490168750
0.124366442431229
0.135729490168755
0.147000000000003
0.155270509831245
0.162633557568776
0.170270509831250
0.175531695488853
0.182000000000000
0.188531695488856
0.195270509831244
0.198633557568779
0.200270509831235
0.203000000000000
0.203729490168746
0.205366442431227
0.205729490168752
0.205468304511144
0.209000000000000
0.210468304511149
0.214729490168750
0.221366442431229
0.231729490168755
0.245999999999996
0.260270509831251
0.274633557568776
0.290270509831245
0.305531695488855
0.322000000000000
0.332531695488852
0.340270509831252
0.342633557568774
0.342270509831249
0.340000000000001
0.335729490168753
0.330366442431227
0.324729490168749
0.322468304511148
0.324000000000000
0.329468304511144
0.338729490168754
0.353366442431228
0.373729490168754
0.396000000000002
0.420270509831244
0.441633557568781
0.462270509831245
0.480531695488855
0.496000000000000
0.506531695488853
0.510270509831249
0.507633557568775
0.505270509831243
0.505000000000002
0.504729490168754
0.503366442431222
0.504729490168749
0.513468304511144
0.527000000000000
0.542468304511146
0.560729490168749
0.582366442431222
0.609729490168753
0.635000000000002
0.659270509831256
0.677633557568769
0.693270509831253
0.708531695488855
0.718000000000000
0.725531695488855
0.722270509831249
0.719633557568770
0.719270509831250
0.719999999999989
0.718729490168754
0.718366442431223
0.720729490168754
0.731468304511144
0.746000000000000
0.760468304511144
0.778729490168757
0.800366442431227
0.824729490168753
0.849000000000001
0.869270509831242
0.884633557568774
0.899270509831248
0.913531695488857
0.923000000000000
0.926531695488855
0.926270509831246
0.927633557568782
0.929270509831244
0.932000000000003
0.929729490168742
0.933366442431229
0.939729490168750
0.948468304511145
0.956000000000000
0.961468304511148
0.970729490168748
0.983366442431226
0.992729490168752
0.999000000000000
1.00027050983125
1.00563355756877
1.01327050983125
1.01653169548885
1.01800000000000
1.01353169548885
1.01227050983125
1.01163355756877
1.00827050983125
0.998999999999997
0.986729490168755
0.976366442431229
0.967729490168750
0.955468304511145
0.942000000000000
0.927468304511144
0.916729490168756
0.909366442431221
0.901729490168752
0.895000000000000
0.886270509831254
0.882633557568779
0.878270509831243
0.872531695488856
0.862000000000000
0.845531695488855
0.828270509831250
0.807633557568772
0.782270509831246
0.749000000000004
0.714729490168743
0.680366442431224
0.648729490168751
0.617468304511145
0.585000000000000
0.560468304511146
0.537729490168748
0.521366442431231
0.504729490168751
0.491999999999999
0.481270509831253
0.467633557568773
0.454270509831251
0.434531695488854
0.413000000000000
0.385531695488856
0.355270509831247
0.322633557568772
0.285270509831246
0.246999999999998
0.211729490168757
0.180366442431219
0.151729490168755
0.128468304511145
0.107000000000000
0.0924683045111432
0.0827294901687552
0.0763664424312250
0.0717294901687567
0.0660000000000051
0.0612705098312464
0.0526335575687722
0.0412705098312427
0.0275316954888557
0.00800000000000000
-0.0144683045111463
-0.0387294901687530
-0.0653664424312275
-0.0927294901687532
-0.120999999999995
-0.144270509831256
-0.163633557568769
-0.181270509831249
-0.193531695488855
-0.205000000000000
-0.209531695488853
-0.208270509831249
-0.205633557568770
-0.201270509831257
-0.201000000000002
-0.199729490168754
-0.200366442431223
-0.201729490168750
-0.207468304511147
-0.218000000000000
-0.229468304511146
-0.238729490168749
-0.249366442431227
-0.261729490168753
-0.273000000000001
-0.280270509831242
-0.282633557568780
-0.282270509831248
-0.284531695488854
-0.286000000000000
-0.282531695488855
-0.275270509831246
-0.270633557568782
-0.266270509831238
-0.266000000000003
-0.262729490168748
-0.257366442431223
-0.252729490168750
-0.254468304511145
-0.257000000000000
-0.256468304511144
-0.256729490168748
-0.259366442431227
-0.265729490168752
-0.273000000000007
-0.276270509831248
-0.281633557568779
-0.288270509831248
-0.296531695488854
-0.301000000000000
-0.299531695488853
-0.298270509831246
-0.293633557568771
-0.290270509831245
-0.282000000000004
-0.268729490168749
-0.254366442431229
-0.242729490168750
-0.235468304511145
-0.227000000000000
-0.219468304511144
-0.216729490168752
-0.219366442431226
-0.227729490168758
-0.235999999999999
-0.242270509831247
-0.251633557568779
-0.261270509831243
-0.270531695488854
-0.271000000000000
-0.267531695488853
-0.261270509831246
-0.252633557568772
-0.244270509831246
-0.229000000000004
-0.210729490168756
-0.196366442431224
-0.186729490168751
-0.181468304511145
-0.175000000000000
-0.173468304511145
-0.179729490168751
-0.191366442431220
-0.202729490168751
-0.214999999999999
-0.225270509831253
-0.236633557568778
-0.247270509831255
-0.249531695488854
-0.248000000000000
-0.239531695488856
-0.229270509831251
-0.218633557568772
-0.205270509831246
-0.189000000000005
-0.174729490168757
-0.166366442431225
-0.161729490168751
-0.159468304511145
-0.161000000000000
-0.165468304511147
-0.175729490168747
-0.188366442431225
-0.200729490168750
-0.210999999999998
-0.222270509831253
-0.233633557568772
-0.239270509831251
-0.239531695488854
-0.235000000000000
-0.226531695488856
-0.215270509831247
-0.204633557568773
-0.192270509831240
-0.179999999999999
-0.169729490168751
-0.162366442431225
-0.159729490168752
-0.158468304511146
-0.160000000000000
-0.164468304511147
-0.170729490168755
-0.179366442431224
-0.187729490168750
-0.192000000000004
-0.198270509831246
-0.198633557568777
-0.201270509831250
-0.200531695488858
-0.197000000000000
-0.189531695488854
-0.183270509831247
-0.179633557568773
-0.175270509831248
-0.167999999999999
-0.160729490168758
-0.156366442431232
-0.154729490168752
-0.153468304511146
-0.150000000000000
-0.146468304511147
-0.147729490168754
-0.149366442431224
-0.150729490168749
-0.151999999999997
-0.154270509831251
-0.160633557568771
-0.168270509831250
-0.174531695488855
-0.176000000000000
-0.177531695488856
-0.179270509831248
-0.178633557568774
-0.175270509831242
-0.166999999999993
-0.160729490168752
-0.152366442431227
-0.145729490168756
-0.137468304511144
-0.129000000000000
-0.125468304511147
-0.129729490168754
-0.135366442431223
-0.141729490168748
-0.151000000000003
-0.162270509831251
-0.177633557568770
-0.191270509831254
-0.198531695488855
-0.201000000000000
-0.202531695488856
-0.202270509831244
-0.197633557568774
-0.185270509831255
-0.170999999999994
-0.159729490168753
-0.150366442431227
-0.141729490168757
-0.132468304511144
-0.129000000000000
-0.133468304511149
-0.141729490168754
-0.152366442431228
-0.161729490168748
-0.175999999999996
-0.189270509831250
-0.203633557568770
-0.212270509831253
-0.216531695488855
-0.218000000000000
-0.214531695488857
-0.210270509831253
-0.198633557568775
-0.186270509831249
-0.173999999999995
-0.165729490168747
-0.155366442431217
-0.146729490168753
-0.141468304511144
-0.143000000000000
-0.149468304511144
-0.157729490168753
-0.166366442431228
-0.175729490168760
-0.186999999999995
-0.199270509831250
-0.206633557568775
-0.211270509831245
-0.211531695488857
-0.207000000000000
-0.200531695488855
-0.187270509831253
-0.174633557568775
-0.161270509831250
-0.150999999999995
-0.143729490168747
-0.134366442431228
-0.128729490168753
-0.127468304511149
-0.131000000000000
-0.137468304511144
-0.143729490168757
-0.149366442431227
-0.157729490168753
-0.163999999999994
-0.169270509831249
-0.172633557568774
-0.173270509831248
-0.174531695488857
-0.170000000000000
-0.169531695488851
-0.165270509831253
-0.159633557568770
-0.154270509831251
-0.149000000000003
-0.146729490168748
-0.142366442431223
-0.136729490168746
-0.133468304511147
-0.131000000000000
-0.132468304511146
-0.131729490168756
-0.130366442431227
-0.128729490168752
-0.131000000000007
-0.137270509831242
-0.144633557568774
-0.147270509831248
-0.150531695488856
-0.155000000000000
-0.158531695488855
-0.160270509831250
-0.154633557568782
-0.146270509831245
-0.139000000000003
-0.130729490168749
-0.120366442431224
-0.105729490168746
-0.0944683045111469
-0.0880000000000000
-0.0884683045111458
-0.0907294901687481
-0.0933664424312317
-0.0987294901687517
-0.110000000000007
-0.123270509831241
-0.136633557568779
-0.145270509831248
-0.152531695488852
-0.158000000000000
-0.159531695488855
-0.154270509831242
-0.144633557568782
-0.131270509831245
-0.122000000000004
-0.108729490168743
-0.0953664424312241
-0.0817294901687506
-0.0734683045111429
-0.0730000000000000
-0.0764683045111456
-0.0817294901687477
-0.0893664424312312
-0.101729490168751
-0.115999999999999
-0.129270509831241
-0.138633557568778
-0.146270509831247
-0.153531695488854
-0.156000000000000
-0.153531695488853
-0.142270509831242
-0.130633557568777
-0.118270509831246
-0.108000000000005
-0.0957294901687563
-0.0803664424312247
-0.0717294901687510
-0.0674683045111431
-0.0710000000000000
-0.0754683045111454
-0.0787294901687513
-0.0893664424312307
-0.101729490168757
-0.115999999999998
-0.125270509831260
-0.130633557568767
-0.135270509831247
-0.137531695488854
-0.137000000000000
-0.128531695488854
-0.114270509831251
-0.101633557568767
-0.0912705098312596
-0.0819999999999985
-0.0717294901687570
-0.0633664424312197
-0.0607294901687513
-0.0634683045111412
-0.0690000000000000
-0.0754683045111452
-0.0807294901687509
-0.0883664424312246
-0.0987294901687563
-0.104999999999998
-0.107270509831259
-0.103633557568766
-0.101270509831250
-0.101531695488853
-0.0980000000000000
-0.0895316954888539
-0.0812705098312472
-0.0746335575687674
-0.0712705098312537
-0.0659999999999991
-0.0577294901687511
-0.0533664424312202
-0.0487294901687517
-0.0494683045111456
-0.0470000000000000
-0.0424683045111429
-0.0417294901687506
-0.0413664424312241
-0.0437294901687557
-0.0450000000000040
-0.0462705098312454
-0.0496335575687768
-0.0562705098312501
-0.0625316954888554
-0.0650000000000000
-0.0665316954888541
-0.0672705098312476
-0.0646335575687679
-0.0612705098312414
-0.0529999999999998
-0.0407294901687517
-0.0303664424312317
-0.0187294901687481
-0.00946830451114578
0.000999999999999997
0.00653169548885733
0.00727050983124581
0.00263355756877642
-0.00472949016875509
-0.0150000000000033
-0.0242705098312447
-0.0376335575687818
-0.0502705098312417
-0.0575316954888552
-0.0620000000000000
-0.0605316954888522
-0.0562705098312480
-0.0466335575687739
-0.0352705098312420
-0.0200000000000072
-0.00372949016875232
0.0116335575687677
0.0232705098312515
0.0305316954888540
0.0340000000000000
0.0335316954888533
0.0282705098312462
0.0156335575687769
0.000270509831252009
-0.0150000000000027
-0.0272705098312506
-0.0396335575687813
-0.0532705098312534
-0.0595316954888550
-0.0620000000000000
-0.0575316954888566
-0.0482705098312484
-0.0406335575687744
-0.0292705098312426
-0.0149999999999942
0.000270509831247061
0.0136335575687727
0.0192705098312512
0.0225316954888559
0.0230000000000000
0.0205316954888514
0.0102705098312546
-0.00436644243122254
-0.0197294901687474
-0.0300000000000020
-0.0382705098312500
-0.0466335575687697
-0.0532705098312530
-0.0525316954888548
-0.0440000000000000
-0.0295316954888568
-0.0132705098312448
0.000366442431225029
0.0147294901687633
0.0320000000000051
0.0492705098312465
0.0626335575687722
0.0692705098312468
0.0745316954888557
0.0810000000000000
0.0845316954888516
0.0842705098312470
0.0836335575687725
0.0842705098312532
0.0919999999999918
0.0977294901687506
0.103366442431225
0.111729490168747
0.122468304511145
0.139000000000000
0.153468304511145
0.166729490168755
0.180366442431225
0.196729490168750
0.214000000000004
0.228270509831239
0.242633557568772
0.257270509831246
0.274531695488856
0.291000000000000
0.303531695488852
0.314270509831247
0.325633557568773
0.337270509831247
0.346000000000006
0.351729490168751
0.353366442431226
0.355729490168748
0.361468304511144
0.365000000000000
0.366468304511145
0.367729490168746
0.374366442431230
0.383729490168749
0.393000000000004
0.402270509831252
0.408633557568777
0.418270509831246
0.428531695488855
0.435000000000000
0.432531695488856
0.425270509831244
0.417633557568774
0.407270509831248
0.389000000000007
0.366729490168745
0.341366442431226
0.321729490168752
0.306468304511144
0.290000000000000
0.278468304511145
0.269729490168746
0.267366442431229
0.269729490168749
0.273000000000010
0.275270509831251
0.276633557568776
0.276270509831246
0.273531695488853
0.264000000000000
0.248531695488854
0.228270509831244
0.205633557568769
0.181270509831249
0.154000000000007
0.126729490168746
0.101366442431227
0.0787294901687526
0.0634683045111439
0.0510000000000000
0.0444683045111445
0.0407294901687497
0.0403664424312285
0.0437294901687543
0.0479999999999957
0.0512705098312570
0.0536335575687756
0.0542705098312452
0.0515316954888528
0.0450000000000000
0.0345316954888545
0.0192705098312445
0.00363355756876904
-0.0137294901687508
-0.0319999999999988
-0.0482705098312404
-0.0606335575687781
-0.0682705098312471
-0.0735316954888580
-0.0700000000000000
-0.0655316954888557
-0.0592705098312507
-0.0486335575687776
-0.0382705098312463
-0.0280000000000049
-0.0207294901687437
-0.0153664424312249
-0.0147294901687511
-0.0164683045111474
-0.0210000000000000
-0.0314683045111453
-0.0397294901687511
-0.0503664424312304
-0.0617294901687502
-0.0729999999999982
-0.0852705098312463
-0.0966335575687776
-0.105270509831247
-0.109531695488854
-0.114000000000000
-0.119531695488854
-0.123270509831251
-0.119633557568778
-0.115270509831247
-0.111999999999999
-0.106729490168744
-0.0973664424312254
-0.0817294901687515
-0.0664683045111455
-0.0510000000000000
-0.0294683045111451
-0.00272949016875077
0.0326335575687701
0.0712705098312440
0.116999999999989
0.167729490168754
0.228366442431223
0.301729490168750
0.384468304511147
0.476000000000000
0.574468304511146
0.687729490168753
0.817366442431221
0.953729490168752
1.09399999999999
1.24227050983125
1.40163355756878
1.56527050983125
1.72753169548885
1.88300000000000
2.03353169548885
2.18127050983125
2.32163355756877
2.44727050983125
2.55400000000000
2.64972949016875
2.73536644243123
2.80372949016875
2.84846830451114
2.87200000000000
2.88046830451115
2.86772949016875
2.82736644243123
2.76072949016875
2.67500000000000
2.57127050983124
2.44963355756877
2.30727050983125
2.14953169548886
1.97900000000000
1.80053169548886
1.61927050983125
1.43163355756878
1.24627050983125
1.06200000000000
0.889729490168736
0.725366442431230
0.572729490168750
0.437468304511147
0.317000000000000
0.211468304511148
0.124729490168752
0.0493664424312203
-0.0132705098312487
-0.0639999999999939
-0.103729490168753
-0.134366442431221
-0.164729490168753
-0.190468304511144
-0.213000000000000
-0.234468304511142
-0.252729490168750
-0.273366442431228
-0.291729490168761
-0.307000000000002
-0.315270509831257
-0.321633557568776
-0.320270509831253
-0.313531695488855
-0.302000000000000
-0.282531695488855
-0.262270509831245
-0.240633557568764
-0.219270509831256
-0.197000000000001
-0.176729490168747
-0.161366442431228
-0.151729490168749
-0.146468304511146
-0.142000000000000
-0.140468304511144
-0.140729490168753
-0.143366442431222
-0.146729490168754
-0.150000000000009
-0.150270509831250
-0.145633557568769
-0.141270509831241
-0.136531695488857
-0.134000000000000
-0.127531695488853
-0.119270509831249
-0.111633557568770
-0.106270509831250
-0.104000000000009
-0.0967294901687538
-0.0903664424312335
-0.0847294901687454
-0.0824683045111444
-0.0800000000000000
-0.0764683045111420
-0.0727294901687569
-0.0703664424312273
-0.0737294901687465
-0.0760000000000011
-0.0772705098312556
-0.0786335575687855
-0.0812705098312444
-0.0875316954888545
-0.0900000000000000
-0.0885316954888508
-0.0832705098312453
-0.0796335575687757
-0.0732705098312441
-0.0640000000000027
-0.0497294901687480
-0.0343664424312286
-0.0227294901687498
-0.0114683045111425
-0.00300000000000000
0.00553169548885190
0.0112705098312555
0.0106335575687788
0.00527050983124765
-0.00300000000000726
-0.00927050983124849
-0.0186335575687795
-0.0292705098312480
-0.0375316954888564
-0.0400000000000000
-0.0365316954888573
-0.0302705098312417
-0.0226335575687707
-0.00927050983123822
0.0119999999999899
0.0332705098312449
0.0526335575687765
0.0662705098312458
0.0785316954888552
0.0900000000000000
0.0965316954888500
0.0952705098312519
0.0886335575687738
0.0802705098312548
0.0739999999999866
0.0667294901687456
0.0563664424312266
0.0477294901687483
0.0464683045111501
0.0520000000000000
0.0614683045111446
0.0717294901687539
0.0833664424312232
0.101729490168755
0.125000000000010
0.143270509831251
0.159633557568770
0.169270509831249
0.178531695488857
0.185000000000000
0.183531695488852
0.177270509831248
0.164633557568769
0.154270509831249
0.147000000000008
0.140729490168753
0.133366442431222
0.129729490168745
0.135468304511148
0.147000000000000
0.160468304511147
0.171729490168758
0.185366442431228
0.204729490168748
0.223000000000002
0.236270509831244
0.243633557568775
0.250270509831245
0.253531695488855
0.257000000000000
0.257531695488855
0.254270509831245
0.252633557568786
0.251270509831243
0.254000000000002
0.255729490168747
0.261366442431228
0.266729490168749
0.275468304511142
0.284000000000000
0.292468304511144
0.301729490168745
0.314366442431233
0.326729490168753
0.338000000000008
0.350270509831250
0.362633557568780
0.375270509831249
0.387531695488853
0.398000000000000
0.409531695488857
0.418270509831241
0.426633557568781
0.435270509831250
0.440000000000009
0.443729490168741
0.444366442431223
0.444729490168753
0.447468304511144
0.450000000000000
0.456468304511146
0.461729490168749
0.473366442431227
0.487729490168746
0.506000000000001
0.526270509831256
0.545633557568774
0.567270509831244
0.589531695488855
0.608000000000000
0.625531695488855
0.634270509831245
0.639633557568765
0.644270509831244
0.646000000000003
0.646729490168761
0.642366442431229
0.640729490168750
0.645468304511143
0.653000000000000
0.662468304511144
0.676729490168752
0.694366442431232
0.720729490168752
0.746999999999993
0.772270509831261
0.794633557568779
0.816270509831248
0.837531695488852
0.853000000000000
0.861531695488853
0.863270509831250
0.863633557568771
0.864270509831251
0.858999999999997
0.852729490168755
0.848366442431224
0.849729490168754
0.853468304511141
0.859000000000000
0.864468304511146
0.876729490168748
0.896366442431226
0.916729490168758
0.936000000000000
0.952270509831254
0.967633557568773
0.982270509831252
0.989531695488854
0.994000000000000
0.987531695488855
0.979270509831246
0.971633557568766
0.959270509831245
0.945000000000004
0.931729490168749
0.921366442431219
0.917729490168751
0.913468304511147
0.914000000000000
0.916468304511148
0.921729490168752
0.931366442431220
0.936729490168751
0.942000000000006
0.941270509831247
0.939633557568778
0.937270509831247
0.927531695488856
0.914000000000000
0.897531695488854
0.881270509831251
0.864633557568772
0.844270509831240
0.822999999999998
0.802729490168757
0.787366442431236
0.771729490168747
0.752468304511145
0.734000000000000
0.718468304511145
0.703729490168755
0.687366442431225
0.668729490168757
0.651999999999998
0.635270509831253
0.618633557568783
0.600270509831251
0.581531695488854
0.562000000000000
0.541531695488852
0.520270509831247
0.497633557568778
0.472270509831247
0.442999999999992
0.413729490168751
0.386366442431231
0.355729490168751
0.325468304511143
0.296000000000000
0.270468304511147
0.246729490168751
0.225366442431219
0.206729490168750
0.190000000000005
0.176270509831246
0.162633557568777
0.151270509831254
0.138531695488856
0.124000000000000
0.106531695488858
0.0862705098312433
0.0626335575687730
0.0352705098312408
0.00599999999999921
-0.0232705098312423
-0.0516335575687742
-0.0792705098312522
-0.101531695488854
-0.122000000000000
-0.137531695488851
-0.147270509831245
-0.152633557568776
-0.154270509831257
-0.154999999999989
-0.153729490168748
-0.151366442431229
-0.149729490168750
-0.150468304511147
-0.157000000000000
-0.166468304511144
-0.177729490168752
-0.191366442431221
-0.210729490168765
-0.230000000000007
-0.247270509831248
-0.261633557568768
-0.273270509831248
-0.282531695488856
-0.289000000000000
-0.289531695488853
-0.281270509831250
-0.271633557568771
-0.260270509831252
-0.246999999999997
-0.233729490168755
-0.220366442431224
-0.211729490168746
-0.210468304511145
-0.212000000000000
-0.217468304511146
-0.225729490168756
-0.239366442431226
-0.258729490168745
-0.274000000000000
-0.287270509831254
-0.296633557568773
-0.305270509831244
-0.310531695488854
-0.309000000000000
-0.301531695488851
-0.290270509831246
-0.280633557568777
-0.272270509831246
-0.263000000000004
-0.252729490168749
-0.246366442431230
-0.244729490168751
-0.248468304511143
-0.251000000000000
-0.253468304511143
-0.256729490168744
-0.262366442431231
-0.270729490168751
-0.275000000000006
-0.273270509831247
-0.271633557568789
-0.270270509831247
-0.269531695488856
-0.264000000000000
-0.254531695488858
-0.247270509831243
-0.240633557568772
-0.236270509831253
-0.229000000000012
-0.222729490168744
-0.218366442431225
-0.216729490168755
-0.216468304511145
-0.213000000000000
-0.210468304511145
-0.210729490168747
-0.213366442431225
-0.216729490168744
-0.219000000000012
-0.222270509831253
-0.227633557568772
-0.235270509831243
-0.239531695488854
-0.242000000000000
-0.241531695488856
-0.242270509831247
-0.239633557568767
-0.232270509831247
-0.223000000000006
-0.211729490168751
-0.200366442431231
-0.192729490168751
-0.182468304511143
-0.172000000000000
-0.165468304511147
-0.165729490168751
-0.171366442431230
-0.177729490168750
-0.185999999999991
-0.198270509831259
-0.211633557568777
-0.225270509831254
-0.234531695488851
-0.241000000000000
-0.243531695488854
-0.242270509831243
-0.236633557568773
-0.227270509831254
-0.214999999999999
-0.204729490168758
-0.194366442431226
-0.185729490168756
-0.178468304511141
-0.173000000000000
-0.175468304511145
-0.181729490168746
-0.193366442431224
-0.205729490168755
-0.218999999999997
-0.230270509831252
-0.241633557568771
-0.253270509831258
-0.260531695488853
-0.262000000000000
-0.257531695488856
-0.249270509831248
-0.239633557568768
-0.225270509831248
-0.207999999999993
-0.191729490168752
-0.179366442431221
-0.169729490168752
-0.164468304511148
-0.161000000000000
-0.163468304511147
-0.173729490168758
-0.187366442431218
-0.201729490168748
-0.213000000000003
-0.225270509831258
-0.234633557568776
-0.243270509831246
-0.247531695488855
-0.243000000000000
-0.235531695488854
-0.229270509831252
-0.221633557568774
-0.212270509831242
-0.203000000000001
-0.193729490168759
-0.192366442431227
-0.193729490168749
-0.196468304511146
-0.201000000000000
-0.206468304511144
-0.218729490168754
-0.228366442431223
-0.237729490168754
-0.243999999999996
-0.249270509831250
-0.254633557568781
-0.259270509831249
-0.256531695488857
-0.252000000000000
-0.247531695488852
-0.246270509831249
-0.242633557568769
-0.234270509831249
-0.225999999999994
-0.220729490168740
-0.216366442431233
-0.210729490168753
-0.201468304511144
-0.196000000000000
-0.192468304511146
-0.193729490168749
-0.193366442431228
-0.192729490168747
-0.196000000000002
-0.202270509831243
-0.210633557568775
-0.217270509831253
-0.220531695488859
-0.226000000000000
-0.230531695488855
-0.233270509831245
-0.229633557568775
-0.221270509831243
-0.215000000000002
-0.209729490168747
-0.202366442431228
-0.192729490168749
-0.182468304511146
-0.178000000000000
-0.178468304511148
-0.183729490168753
-0.187366442431233
-0.194729490168740
-0.207000000000008
-0.221270509831249
-0.234633557568780
-0.243270509831248
-0.250531695488852
-0.256000000000000
-0.258531695488857
-0.254270509831249
-0.243633557568781
-0.231270509831238
-0.217999999999996
-0.207729490168754
-0.192366442431223
-0.178729490168746
-0.168468304511145
-0.165000000000000
-0.166468304511146
-0.169729490168749
-0.177366442431238
-0.188729490168746
-0.200000000000001
-0.212270509831242
-0.223633557568774
-0.230270509831252
-0.236531695488854
-0.237000000000000
-0.234531695488855
-0.226270509831246
-0.212633557568776
-0.198270509831245
-0.184000000000003
-0.169729490168749
-0.158366442431218
-0.147729490168758
-0.142468304511147
-0.142000000000000
-0.148468304511148
-0.158729490168752
-0.170366442431221
-0.183729490168765
-0.192999999999993
-0.207270509831248
-0.217633557568768
-0.222270509831248
-0.224531695488856
-0.222000000000000
-0.215531695488853
-0.207270509831250
-0.196633557568771
-0.186270509831252
-0.177999999999997
-0.170729490168756
-0.166366442431213
-0.162729490168747
-0.162468304511145
-0.167000000000000
-0.170468304511141
-0.176729490168756
-0.181366442431226
-0.185729490168758
-0.189999999999986
-0.193270509831254
-0.194633557568773
-0.193270509831251
-0.190531695488854
-0.190000000000000
-0.186531695488851
-0.182270509831254
-0.175633557568777
-0.172270509831259
-0.171999999999991
-0.168729490168750
-0.163366442431219
-0.155729490168751
-0.151468304511143
-0.150000000000000
-0.149468304511143
-0.146729490168751
-0.142366442431231
-0.144729490168764
-0.151000000000005
-0.158270509831247
-0.164633557568767
-0.170270509831247
-0.175531695488856
-0.185000000000000
-0.190531695488854
-0.189270509831243
-0.186633557568772
-0.182270509831253
-0.178999999999998
-0.171729490168744
-0.159366442431225
-0.147729490168747
-0.138468304511145
-0.137000000000000
-0.134468304511145
-0.131729490168755
-0.132366442431225
-0.137729490168743
-0.151000000000012
-0.162270509831240
-0.170633557568772
-0.178270509831243
-0.185531695488858
-0.193000000000000
-0.193531695488852
-0.186270509831247
-0.178633557568778
-0.168270509831247
-0.156000000000006
-0.139729490168751
-0.123366442431231
-0.109729490168744
-0.100468304511143
-0.0950000000000000
-0.0914683045111429
-0.0907294901687506
-0.0973664424312297
-0.109729490168749
-0.121000000000004
-0.132270509831245
-0.142633557568777
-0.151270509831246
-0.158531695488855
-0.159000000000000
-0.152531695488854
-0.142270509831244
-0.129633557568773
-0.114270509831254
-0.0939999999999997
-0.0747294901687451
-0.0593664424312261
-0.0497294901687480
-0.0454683045111457
-0.0430000000000000
-0.0434683045111448
-0.0517294901687462
-0.0643664424312237
-0.0787294901687552
-0.0910000000000103
-0.101270509831251
-0.111633557568771
-0.120270509831250
-0.125531695488853
-0.123000000000000
-0.116531695488856
-0.108270509831248
-0.0986335575687683
-0.0882705098312483
-0.0750000000000071
-0.0647294901687522
-0.0563664424312211
-0.0517294901687524
-0.0494683045111438
-0.0490000000000000
-0.0494683045111467
-0.0527294901687499
-0.0563664424312287
-0.0587294901687481
-0.0610000000000028
-0.0592705098312572
-0.0586335575687759
-0.0562705098312454
-0.0555316954888550
-0.0540000000000000
-0.0485316954888544
-0.0442705098312443
-0.0406335575687744
-0.0382705098312425
-0.0370000000000009
-0.0327294901687593
-0.0273664424312272
-0.0247294901687488
-0.0244683045111419
-0.0230000000000000
-0.0184683045111444
-0.0137294901687535
-0.0123664424312337
-0.0127294901687540
-0.00999999999999533
-0.00927050983125011
-0.00763355756878085
-0.0102705098312490
-0.0115316954888527
-0.00800000000000000
-0.000531695488852527
0.00872949016875130
0.0183664424312306
0.0317294901687504
0.0480000000000052
0.0682705098312466
0.0916335575687778
0.110270509831247
0.128531695488856
0.146000000000000
0.160531695488854
0.171270509831251
0.176633557568783
0.179270509831240
0.180999999999999
0.182729490168744
0.182366442431225
0.180729490168747
0.184468304511145
0.195000000000000
0.210468304511145
0.226729490168747
0.242366442431236
0.262729490168756
0.288999999999998
0.313270509831239
0.333633557568783
0.349270509831250
0.363531695488854
0.376000000000000
0.380531695488852
0.377270509831247
0.369633557568778
0.360270509831247
0.349000000000006
0.333729490168751
0.313366442431220
0.298729490168752
0.289468304511148
0.287000000000000
0.284468304511147
0.283729490168751
0.286366442431230
0.294729490168762
0.305000000000004
0.311270509831245
0.312633557568766
0.311270509831246
0.306531695488855
0.296000000000000
0.278531695488854
0.253270509831252
0.227633557568773
0.203270509831241
0.177000000000000
0.150729490168758
0.123366442431215
0.103729490168748
0.0944683045111416
0.0870000000000000
0.0814683045111448
0.0747294901687542
0.0713664424312236
0.0707294901687551
0.0699999999999965
0.0642705098312512
0.0546335575687707
0.0442705098312497
0.0335316954888531
0.0200000000000000
0.00253169548885217
-0.0157294901687520
-0.0323664424312205
-0.0447294901687385
-0.0580000000000064
-0.0702705098312477
-0.0816335575687788
-0.0882705098312475
-0.0905316954888561
-0.0940000000000000
-0.0945316954888576
-0.0982705098312502
-0.0976335575687715
-0.0952705098312391
-0.0939999999999974
-0.0917294901687429
-0.0903664424312353
-0.0867294901687467
-0.0854683045111450
-0.0840000000000000
-0.0854683045111455
-0.0837294901687556
-0.0833664424312366
-0.0837294901687444
-0.0889999999999989
-0.0952705098312535
-0.0996335575687727
-0.104270509831251
-0.108531695488854
-0.114000000000000
-0.120531695488856
-0.123270509831247
-0.123633557568777
-0.122270509831246
-0.120999999999991
-0.118729490168750
-0.114366442431230
-0.110729490168759
-0.109468304511143
-0.112000000000000
-0.118468304511147
-0.124729490168751
-0.131366442431219
-0.141729490168750
-0.152000000000005
-0.164270509831246
-0.169633557568767
-0.171270509831255
-0.165531695488856
-0.153000000000000
-0.133531695488858
-0.100270509831243
-0.0566335575687725
-0.00327050983125327
0.0590000000000014
0.132270509831243
0.214633557568786
0.305270509831245
0.398531695488855
0.501000000000000
0.605531695488851
0.715270509831245
0.829633557568776
0.951270509831244
1.07600000000000
1.20072949016875
1.32936644243123
1.46872949016875
1.61446830451115
1.76300000000000
1.90646830451114
2.05372949016874
2.20136644243122
2.34472949016875
2.47800000000001
2.58827050983125
2.68363355756878
2.76127050983125
2.81753169548886
2.83600000000000
2.82453169548886
2.78727050983125
2.72763355756877
2.63927050983124
2.52300000000001
2.38872949016876
2.23936644243122
2.08472949016875
1.92146830451114
1.75300000000000
1.58346830451115
1.41572949016875
1.25236644243123
1.09272949016875
0.934000000000000
0.785270509831255
0.643633557568774
0.512270509831252
0.386531695488854
0.267000000000000
0.161531695488855
0.0692705098312459
-0.0113664424312234
-0.0827294901687549
-0.146000000000010
-0.195270509831251
-0.231633557568771
-0.259270509831250
-0.280531695488857
-0.296000000000000
-0.302531695488852
-0.301270509831248
-0.297633557568769
-0.293270509831249
-0.288000000000007
-0.274729490168753
-0.259366442431221
-0.247729490168745
-0.236468304511148
-0.229000000000000
-0.216468304511147
-0.205729490168758
-0.197366442431228
-0.192729490168748
-0.192000000000003
-0.188270509831244
-0.185633557568776
-0.185270509831245
-0.184531695488855
-0.185000000000000
-0.181531695488855
-0.174270509831244
-0.166633557568786
-0.158270509831243
-0.146000000000001
-0.130729490168747
-0.112366442431227
-0.0977294901687490
-0.0864683045111420
-0.0760000000000000
-0.0684683045111443
-0.0617294901687453
-0.0603664424312334
-0.0657294901687537
-0.0710000000000087
-0.0802705098312369
-0.0866335575687806
-0.0952705098312489
-0.102531695488853
-0.105000000000000
-0.105531695488853
-0.0992705098312409
-0.0926335575687806
-0.0832705098312499
-0.0710000000000087
-0.0557294901687408
-0.0413664424312224
-0.0297294901687533
-0.0204683045111443
-0.0160000000000000
-0.0134683045111462
-0.0157294901687489
-0.0203664424312274
-0.0297294901687596
-0.0410000000000012
-0.0522705098312557
-0.0636335575687746
-0.0702705098312445
-0.0765316954888545
-0.0760000000000000
-0.0715316954888549
-0.0612705098312452
-0.0476335575687646
-0.0332705098312440
-0.0150000000000025
0.00127050983123918
0.0166335575687826
0.0282705098312503
0.0325316954888576
0.0330000000000000
0.0315316954888561
0.0252705098312474
0.0166335575687676
0.00527050983124754
-0.00599999999999374
-0.0132705098312616
-0.0176335575687685
-0.0192705098312481
-0.0185316954888522
-0.0140000000000000
-0.000531695488853016
0.0107294901687504
0.0253664424312294
0.0367294901687359
0.0490000000000037
0.0612705098312450
0.0716335575687765
0.0752705098312459
0.0755316954888595
0.0740000000000000
0.0755316954888542
0.0752705098312518
0.0726335575687737
0.0702705098312417
0.0700000000000001
0.0747294901687455
0.0793664424312265
0.0817294901687483
0.0854683045111459
0.0940000000000000
0.106468304511145
0.116729490168754
0.123366442431234
0.131729490168755
0.143999999999996
0.157270509831251
0.168633557568782
0.176270509831250
0.185531695488853
0.197000000000000
0.206531695488856
0.212270509831248
0.214633557568780
0.217270509831249
0.221999999999994
0.223729490168753
0.224366442431221
0.219729490168753
0.219468304511144
0.223000000000000
0.227468304511147
0.231729490168750
0.236366442431228
0.246729490168761
0.262000000000002
0.278270509831244
0.293633557568764
0.307270509831253
0.321531695488855
0.337000000000000
0.348531695488855
0.354270509831245
0.354633557568775
0.355270509831243
0.357000000000001
0.353729490168760
0.348366442431217
0.343729490168749
0.345468304511146
0.350000000000000
0.357468304511149
0.365729490168753
0.380366442431222
0.400729490168754
0.423000000000009
0.445270509831250
0.465633557568769
0.486270509831249
0.505531695488853
0.521000000000000
0.531531695488853
0.537270509831249
0.540633557568781
0.541270509831250
0.539999999999995
0.536729490168754
0.531366442431223
0.532729490168746
0.539468304511144
0.548000000000000
0.562468304511142
0.578729490168749
0.601366442431227
0.626729490168760
0.654000000000001
0.680270509831243
0.702633557568775
0.723270509831252
0.739531695488854
0.751000000000000
0.757531695488851
0.759270509831245
0.758633557568776
0.758270509831257
0.757000000000003
0.756729490168748
0.758366442431229
0.765729490168750
0.778468304511147
0.793000000000000
0.811468304511144
0.829729490168752
0.849366442431221
0.869729490168765
0.888000000000007
0.905270509831249
0.916633557568768
0.926270509831248
0.932531695488856
0.937000000000000
0.942531695488853
0.942270509831250
